20,2.15976
20.01,2.17619
20.02,2.20755
20.03,2.23892
20.04,2.20382
20.05,2.1213
20.06,2.03915
20.07,2.06678
20.08,2.09927
20.09,2.14818
20.1,2.22921
20.11,2.31024
20.12,2.30912
20.13,2.27364
20.14,2.24116
20.15,2.24527
20.16,2.24975
20.17,2.26431
20.18,2.29119
20.19,2.31808
20.2,2.34048
20.21,2.36177
20.22,2.36737
20.23,2.30912
20.24,2.25049
20.25,2.21763
20.26,2.20344
20.27,2.18925
20.28,2.16946
20.29,2.14967
20.3,2.13026
20.31,2.11196
20.32,2.09329
20.33,2.07686
20.34,2.06118
20.35,2.0496
20.36,2.09366
20.37,2.13773
20.38,2.14706
20.39,2.11308
20.4,2.0791
20.41,2.00629
20.42,1.92526
20.43,1.87933
20.44,1.98015
20.45,2.08134
20.46,2.10412
20.47,2.06715
20.48,2.03019
20.49,2.19112
20.5,2.36438
20.51,2.4932
20.52,2.52457
20.53,2.55594
20.54,2.53129
20.55,2.48163
20.56,2.43085
20.57,2.3655
20.58,2.30016
20.59,2.26804
20.6,2.27962
20.61,2.29082
20.62,2.28261
20.63,2.26991
20.64,2.25833
20.65,2.25087
20.66,2.24377
20.67,2.23593
20.68,2.22734
20.69,2.21913
20.7,2.2251
20.71,2.2322
20.72,2.22398
20.73,2.18141
20.74,2.13885
20.75,2.10673
20.76,2.07985
20.77,2.05632
20.78,2.10188
20.79,2.14743
20.8,2.16274
20.81,2.13698
20.82,2.11159
20.83,2.14967
20.84,2.20382
20.85,2.23518
20.86,2.16125
20.87,2.08732
20.88,2.05184
20.89,2.04736
20.9,2.04325
20.91,1.99957
20.92,1.95252
20.93,1.9331
20.94,1.97866
20.95,2.02421
20.96,2.03243
20.97,2.02234
20.98,2.01338
20.99,2.01898
21,2.02458
21.01,2.05707
21.02,2.1269
21.03,2.19635
21.04,2.20307
21.05,2.19299
21.06,2.17507
21.07,2.11681
21.08,2.05856
21.09,2.07089
21.1,2.14333
21.11,2.21577
21.12,2.20531
21.13,2.18664
21.14,2.16274
21.15,2.12578
21.16,2.08881
21.17,2.10113
21.18,2.1381
21.19,2.17171
21.2,2.12055
21.21,2.06939
21.22,2.04213
21.23,2.04923
21.24,2.05632
21.25,2.11457
21.26,2.18701
21.27,2.25012
21.28,2.26132
21.29,2.2729
21.3,2.24415
21.31,2.17992
21.32,2.11607
21.33,2.03915
21.34,1.96111
21.35,1.93833
21.36,2.05744
21.37,2.17693
21.38,2.2027
21.39,2.17843
21.4,2.15602
21.41,2.19598
21.42,2.23556
21.43,2.21763
21.44,2.11383
21.45,2.01002
21.46,1.99882
21.47,2.0145
21.48,2.03355
21.49,2.07051
21.5,2.10748
21.51,2.08918
21.52,2.02122
21.53,1.95289
21.54,2.01226
21.55,2.0862
21.56,2.12354
21.57,2.0623
21.58,2.00106
21.59,2.00143
21.6,2.03541
21.61,2.06977
21.62,2.10524
21.63,2.14071
21.64,2.11532
21.65,1.99583
21.66,1.87634
21.67,1.89016
21.68,1.9443
21.69,2.00367
21.7,2.0959
21.71,2.18851
21.72,2.18291
21.73,2.0847
21.74,1.9865
21.75,1.93161
21.76,1.88157
21.77,1.87186
21.78,1.97418
21.79,2.07649
21.8,2.06043
21.81,1.97642
21.82,1.89427
21.83,1.97978
21.84,2.06491
21.85,2.12839
21.86,2.15677
21.87,2.18552
21.88,2.17731
21.89,2.15714
21.9,2.14034
21.91,2.14333
21.92,2.14594
21.93,2.11943
21.94,2.06379
21.95,2.00853
21.96,1.99173
21.97,1.98052
21.98,1.97231
21.99,1.9738
22,1.9753
22.01,2.00703
22.02,2.0567
22.03,2.10636
22.04,2.0552
22.05,2.00405
22.06,1.95476
22.07,1.9092
22.08,1.86365
22.09,1.90248
22.1,1.96932
22.11,2.02683
22.12,2.01674
22.13,2.00666
22.14,2.00741
22.15,2.01898
22.16,2.03019
22.17,2.09852
22.18,2.17544
22.19,2.21241
22.2,2.1269
22.21,2.04176
22.22,2.02085
22.23,2.03915
22.24,2.05782
22.25,2.09441
22.26,2.13138
22.27,2.13922
22.28,2.09665
22.29,2.05371
22.3,2.00703
22.31,1.95849
22.32,1.9148
22.33,1.90472
22.34,1.89501
22.35,1.90174
22.36,1.92563
22.37,1.9499
22.38,1.96447
22.39,1.97716
22.4,1.99173
22.41,2.01152
22.42,2.03131
22.43,2.03392
22.44,2.02533
22.45,2.01674
22.46,2.02085
22.47,2.02533
22.48,2.02795
22.49,2.02795
22.5,2.02795
22.51,2.03093
22.52,2.03541
22.53,2.02981
22.54,1.94169
22.55,1.85319
22.56,1.82818
22.57,1.87074
22.58,1.91331
22.59,1.96223
22.6,2.01189
22.61,2.04213
22.62,2.00666
22.63,1.97119
22.64,1.96111
22.65,1.96857
22.66,1.97567
22.67,1.96036
22.68,1.94468
22.69,1.94206
22.7,1.96335
22.71,1.98463
22.72,1.94542
22.73,1.88269
22.74,1.83079
22.75,1.87634
22.76,1.9219
22.77,1.95999
22.78,1.98986
22.79,2.01973
22.8,2.07611
22.81,2.13698
22.82,2.17208
22.83,2.11345
22.84,2.0552
22.85,1.97754
22.86,1.88643
22.87,1.79569
22.88,1.81735
22.89,1.84311
22.9,1.8756
22.91,1.92115
22.92,1.96633
22.93,1.98351
22.94,1.98911
22.95,1.99135
22.96,1.95887
22.97,1.92601
22.98,1.898
22.99,1.87522
23,1.85245
23.01,1.8629
23.02,1.88008
23.03,1.9051
23.04,1.95887
23.05,2.01301
23.06,1.99023
23.07,1.91368
23.08,1.83676
23.09,1.81063
23.1,1.78635
23.11,1.79121
23.12,1.85394
23.13,1.9163
23.14,1.95588
23.15,1.98575
23.16,2.01002
23.17,1.97156
23.18,1.9331
23.19,1.96148
23.2,2.06939
23.21,2.17768
23.22,2.08022
23.23,1.94094
23.24,1.85058
23.25,1.9514
23.26,2.05259
23.27,2.0679
23.28,2.02122
23.29,1.97418
23.3,1.97343
23.31,1.97455
23.32,1.98202
23.33,2.00218
23.34,2.02197
23.35,1.97828
23.36,1.90696
23.37,1.84647
23.38,1.91592
23.39,1.98575
23.4,2.00442
23.41,1.96036
23.42,1.9163
23.43,1.90622
23.44,1.90323
23.45,1.9092
23.46,1.95214
23.47,1.99471
23.48,1.98239
23.49,1.92825
23.5,1.8741
23.51,1.91555
23.52,1.96223
23.53,1.957
23.54,1.839
23.55,1.72101
23.56,1.76022
23.57,1.86962
23.58,1.96708
23.59,1.89165
23.6,1.81623
23.61,1.76208
23.62,1.7352
23.63,1.70831
23.64,1.78523
23.65,1.88605
23.66,1.95028
23.67,1.85357
23.68,1.75686
23.69,1.74229
23.7,1.79196
23.71,1.84162
23.72,1.88232
23.73,1.9219
23.74,1.95551
23.75,1.97567
23.76,1.99546
23.77,1.97642
23.78,1.93945
23.79,1.90099
23.8,1.83564
23.81,1.7703
23.82,1.75387
23.83,1.80204
23.84,1.85058
23.85,1.86215
23.86,1.86514
23.87,1.85543
23.88,1.78859
23.89,1.72176
23.9,1.74229
23.91,1.83303
23.92,1.92414
23.93,1.88755
23.94,1.8405
23.95,1.81249
23.96,1.8278
23.97,1.84348
23.98,1.81996
23.99,1.77739
24,1.73707
24.01,1.74565
24.02,1.75424
24.03,1.76582
24.04,1.7815
24.05,1.79681
24.06,1.82183
24.07,1.84871
24.08,1.86589
24.09,1.83452
24.1,1.80316
24.11,1.78449
24.12,1.7759
24.13,1.76731
24.14,1.78075
24.15,1.79644
24.16,1.81959
24.17,1.86103
24.18,1.90211
24.19,1.89427
24.2,1.86141
24.21,1.82855
24.22,1.79158
24.23,1.75462
24.24,1.74304
24.25,1.76731
24.26,1.79121
24.27,1.75387
24.28,1.69973
24.29,1.66014
24.3,1.69412
24.31,1.72848
24.32,1.76544
24.33,1.8054
24.34,1.84498
24.35,1.84236
24.36,1.83527
24.37,1.83639
24.38,1.85917
24.39,1.88195
24.4,1.82631
24.41,1.7296
24.42,1.63774
24.43,1.70197
24.44,1.76582
24.45,1.78673
24.46,1.74379
24.47,1.70122
24.48,1.68404
24.49,1.67433
24.5,1.67172
24.51,1.71018
24.52,1.74827
24.53,1.78822
24.54,1.82967
24.55,1.87074
24.56,1.84909
24.57,1.82071
24.58,1.78337
24.59,1.72213
24.6,1.66126
24.61,1.67284
24.62,1.724
24.63,1.77478
24.64,1.80876
24.65,1.84311
24.66,1.86664
24.67,1.87373
24.68,1.88083
24.69,1.83863
24.7,1.7815
24.71,1.73146
24.72,1.72138
24.73,1.71167
24.74,1.71279
24.75,1.724
24.76,1.73557
24.77,1.79382
24.78,1.85767
24.79,1.87074
24.8,1.74267
24.81,1.61459
24.82,1.6004
24.83,1.65044
24.84,1.70047
24.85,1.78001
24.86,1.85991
24.87,1.90136
24.88,1.88269
24.89,1.8644
24.9,1.86215
24.91,1.86477
24.92,1.85991
24.93,1.80428
24.94,1.74901
24.95,1.72773
24.96,1.73893
24.97,1.75013
24.98,1.70906
24.99,1.66052
25,1.64521
25.01,1.72474
25.02,1.80465
25.03,1.81772
25.04,1.79196
25.05,1.76694
25.06,1.80652
25.07,1.84647
25.08,1.8405
25.09,1.75947
25.1,1.67807
25.11,1.65716
25.12,1.65566
25.13,1.65342
25.14,1.64334
25.15,1.63326
25.16,1.66425
25.17,1.7352
25.18,1.80614
25.19,1.75648
25.2,1.68964
25.21,1.66164
25.22,1.74976
25.23,1.83788
25.24,1.87634
25.25,1.88493
25.26,1.89352
25.27,1.7871
25.28,1.68068
25.29,1.61198
25.3,1.60749
25.31,1.60339
25.32,1.63401
25.33,1.67657
25.34,1.71914
25.35,1.75872
25.36,1.79868
25.37,1.8334
25.38,1.86328
25.39,1.89315
25.4,1.78859
25.41,1.66351
25.42,1.57538
25.43,1.60413
25.44,1.63251
25.45,1.66537
25.46,1.70085
25.47,1.73632
25.48,1.69151
25.49,1.64633
25.5,1.62019
25.51,1.62878
25.52,1.63737
25.53,1.65006
25.54,1.66425
25.55,1.67097
25.56,1.61683
25.57,1.56306
25.58,1.53505
25.59,1.53505
25.6,1.53505
25.61,1.58285
25.62,1.63811
25.63,1.6833
25.64,1.69487
25.65,1.70607
25.66,1.67097
25.67,1.60563
25.68,1.53991
25.69,1.64073
25.7,1.74453
25.71,1.811
25.72,1.80951
25.73,1.80801
25.74,1.75275
25.75,1.67732
25.76,1.60637
25.77,1.57538
25.78,1.54402
25.79,1.55933
25.8,1.62616
25.81,1.693
25.82,1.67172
25.83,1.63475
25.84,1.61459
25.85,1.65305
25.86,1.69151
25.87,1.68143
25.88,1.63849
25.89,1.59592
25.9,1.60862
25.91,1.6228
25.92,1.62766
25.93,1.61496
25.94,1.60227
25.95,1.62019
25.96,1.65006
25.97,1.67433
25.98,1.64596
25.99,1.61758
26,1.58621
26.01,1.55223
26.02,1.51788
26.03,1.45403
26.04,1.3842
26.05,1.36254
26.06,1.51452
26.07,1.66687
26.08,1.74005
26.09,1.75872
26.1,1.77702
26.11,1.66687
26.12,1.55148
26.13,1.48987
26.14,1.53244
26.15,1.57501
26.16,1.65604
26.17,1.75275
26.18,1.83415
26.19,1.75013
26.2,1.66612
26.21,1.60525
26.22,1.57127
26.23,1.53692
26.24,1.606
26.25,1.69562
26.26,1.75611
26.27,1.70645
26.28,1.65678
26.29,1.64409
26.3,1.65828
26.31,1.67247
26.32,1.62019
26.33,1.56493
26.34,1.52572
26.35,1.52012
26.36,1.51452
26.37,1.47456
26.38,1.42079
26.39,1.38196
26.4,1.52535
26.41,1.66911
26.42,1.72624
26.43,1.67769
26.44,1.62953
26.45,1.6467
26.46,1.67807
26.47,1.67657
26.48,1.5429
26.49,1.40922
26.5,1.42117
26.51,1.54215
26.52,1.66313
26.53,1.60637
26.54,1.53954
26.55,1.48241
26.56,1.44693
26.57,1.41146
26.58,1.45104
26.59,1.52348
26.6,1.58658
26.61,1.51975
26.62,1.45291
26.63,1.43834
26.64,1.4895
26.65,1.54066
26.66,1.53618
26.67,1.519
26.68,1.49921
26.69,1.46784
26.7,1.43685
26.71,1.45515
26.72,1.5119
26.73,1.56903
26.74,1.62841
26.75,1.68815
26.76,1.72736
26.77,1.72176
26.78,1.71615
26.79,1.70757
26.8,1.69748
26.81,1.68404
26.82,1.6187
26.83,1.55335
26.84,1.52871
26.85,1.55709
26.86,1.58546
26.87,1.55559
26.88,1.51153
26.89,1.47382
26.9,1.46523
26.91,1.45664
26.92,1.49174
26.93,1.56119
26.94,1.63102
26.95,1.60413
26.96,1.57015
26.97,1.53244
26.98,1.48689
26.99,1.44133
27,1.46224
27.01,1.51489
27.02,1.56605
27.03,1.58434
27.04,1.60301
27.05,1.60862
27.06,1.59741
27.07,1.58584
27.08,1.52908
27.09,1.46075
27.1,1.40772
27.11,1.42789
27.12,1.44768
27.13,1.45179
27.14,1.44357
27.15,1.43498
27.16,1.50369
27.17,1.57912
27.18,1.59965
27.19,1.49025
27.2,1.38084
27.21,1.4025
27.22,1.4895
27.23,1.5724
27.24,1.57688
27.25,1.58098
27.26,1.57464
27.27,1.55335
27.28,1.53207
27.29,1.59181
27.3,1.67284
27.31,1.72362
27.32,1.6228
27.33,1.52199
27.34,1.48539
27.35,1.50369
27.36,1.52236
27.37,1.45104
27.38,1.3715
27.39,1.35283
27.4,1.48502
27.41,1.6172
27.42,1.60189
27.43,1.51078
27.44,1.42154
27.45,1.37599
27.46,1.33043
27.47,1.3252
27.48,1.37748
27.49,1.43013
27.5,1.43834
27.51,1.43424
27.52,1.42976
27.53,1.42565
27.54,1.42117
27.55,1.41258
27.56,1.39988
27.57,1.38681
27.58,1.46299
27.59,1.54812
27.6,1.59517
27.61,1.54252
27.62,1.48987
27.63,1.5134
27.64,1.57725
27.65,1.63587
27.66,1.49361
27.67,1.35134
27.68,1.32296
27.69,1.46523
27.7,1.60749
27.71,1.57127
27.72,1.48315
27.73,1.40436
27.74,1.3786
27.75,1.35321
27.76,1.34014
27.77,1.33865
27.78,1.33715
27.79,1.3969
27.8,1.46374
27.81,1.51414
27.82,1.51975
27.83,1.52572
27.84,1.51489
27.85,1.49473
27.86,1.47494
27.87,1.46374
27.88,1.45253
27.89,1.42266
27.9,1.36441
27.91,1.30616
27.92,1.31176
27.93,1.33753
27.94,1.35395
27.95,1.31251
27.96,1.27143
27.97,1.30168
27.98,1.39988
27.99,1.49771
28,1.48875
28.01,1.46598
28.02,1.43573
28.03,1.38457
28.04,1.33342
28.05,1.31661
28.06,1.31923
28.07,1.32222
28.08,1.33641
28.09,1.35097
28.1,1.34985
28.11,1.32408
28.12,1.29869
28.13,1.33342
28.14,1.38719
28.15,1.432
28.16,1.41482
28.17,1.39802
28.18,1.43536
28.19,1.52647
28.2,1.61758
28.21,1.52983
28.22,1.41743
28.23,1.35806
28.24,1.4544
28.25,1.55111
28.26,1.56605
28.27,1.53169
28.28,1.49771
28.29,1.5119
28.3,1.52609
28.31,1.50854
28.32,1.43722
28.33,1.36628
28.34,1.33118
28.35,1.3084
28.36,1.2901
28.37,1.3028
28.38,1.31587
28.39,1.32856
28.4,1.34126
28.41,1.35433
28.42,1.32744
28.43,1.29458
28.44,1.2789
28.45,1.31587
28.46,1.35283
28.47,1.39428
28.48,1.43834
28.49,1.48241
28.5,1.4671
28.51,1.45179
28.52,1.44394
28.53,1.44955
28.54,1.45515
28.55,1.40511
28.56,1.33528
28.57,1.28861
28.58,1.42117
28.59,1.55335
28.6,1.58845
28.61,1.52161
28.62,1.45477
28.63,1.47494
28.64,1.50892
28.65,1.53655
28.66,1.54402
28.67,1.55111
28.68,1.47307
28.69,1.34089
28.7,1.2087
28.71,1.3211
28.72,1.43797
28.73,1.49211
28.74,1.43536
28.75,1.3786
28.76,1.37487
28.77,1.39055
28.78,1.4025
28.79,1.38383
28.8,1.36553
28.81,1.37748
28.82,1.42303
28.83,1.46859
28.84,1.37561
28.85,1.25911
28.86,1.18742
28.87,1.26695
28.88,1.34649
28.89,1.36889
28.9,1.35321
28.91,1.33753
28.92,1.28301
28.93,1.22775
28.94,1.2158
28.95,1.28562
28.96,1.35508
28.97,1.36105
28.98,1.34275
28.99,1.32446
29,1.30877
29.01,1.29309
29.02,1.28749
29.03,1.29309
29.04,1.29906
29.05,1.31549
29.06,1.33379
29.07,1.3491
29.08,1.35171
29.09,1.3547
29.1,1.34985
29.11,1.34014
29.12,1.33006
29.13,1.33528
29.14,1.34089
29.15,1.35171
29.16,1.37337
29.17,1.39466
29.18,1.40362
29.19,1.4081
29.2,1.40399
29.21,1.31587
29.22,1.22775
29.23,1.20459
29.24,1.25724
29.25,1.30989
29.26,1.3267
29.27,1.33678
29.28,1.34051
29.29,1.32035
29.3,1.30056
29.31,1.32222
29.32,1.37337
29.33,1.42453
29.34,1.47718
29.35,1.52983
29.36,1.52796
29.37,1.41706
29.38,1.30616
29.39,1.32707
29.4,1.40212
29.41,1.47083
29.42,1.45925
29.43,1.44805
29.44,1.43984
29.45,1.43536
29.46,1.43125
29.47,1.36926
29.48,1.29533
29.49,1.23745
29.5,1.24305
29.51,1.24903
29.52,1.26023
29.53,1.27591
29.54,1.2916
29.55,1.25164
29.56,1.20908
29.57,1.19787
29.58,1.25202
29.59,1.30579
29.6,1.27666
29.61,1.21132
29.62,1.15344
29.63,1.19302
29.64,1.23297
29.65,1.25388
29.66,1.2509
29.67,1.24791
29.68,1.2453
29.69,1.24231
29.7,1.24044
29.71,1.24193
29.72,1.24305
29.73,1.27031
29.74,1.31736
29.75,1.36441
29.76,1.34835
29.77,1.32819
29.78,1.31848
29.79,1.32968
29.8,1.34126
29.81,1.31624
29.82,1.27479
29.83,1.23745
29.84,1.25612
29.85,1.27442
29.86,1.28376
29.87,1.28077
29.88,1.27778
29.89,1.29832
29.9,1.32371
29.91,1.34499
29.92,1.34798
29.93,1.35097
29.94,1.31064
29.95,1.23671
29.96,1.16277
29.97,1.24828
29.98,1.34499
29.99,1.41258
30,1.41557
30.01,1.41855
30.02,1.401
30.03,1.37375
30.04,1.34835
30.05,1.34835
30.06,1.34835
30.07,1.34163
30.08,1.32595
30.09,1.31027
30.1,1.34051
30.11,1.38159
30.12,1.39802
30.13,1.29832
30.14,1.19899
30.15,1.16763
30.16,1.19153
30.17,1.2158
30.18,1.28488
30.19,1.35732
30.2,1.39279
30.21,1.34163
30.22,1.29048
30.23,1.29085
30.24,1.31661
30.25,1.33827
30.26,1.2845
30.27,1.23036
30.28,1.22401
30.29,1.28376
30.3,1.3435
30.31,1.3715
30.32,1.39167
30.33,1.39988
30.34,1.35171
30.35,1.30317
30.36,1.27965
30.37,1.27666
30.38,1.27405
30.39,1.28674
30.4,1.30093
30.41,1.31027
30.42,1.30728
30.43,1.30467
30.44,1.30728
30.45,1.31288
30.46,1.31699
30.47,1.28002
30.48,1.24305
30.49,1.2255
30.5,1.23559
30.51,1.2453
30.52,1.2677
30.53,1.29309
30.54,1.30728
30.55,1.26023
30.56,1.21356
30.57,1.20534
30.58,1.23073
30.59,1.2565
30.6,1.29757
30.61,1.34014
30.62,1.35844
30.63,1.31437
30.64,1.27031
30.65,1.22625
30.66,1.18219
30.67,1.14074
30.68,1.18592
30.69,1.23148
30.7,1.24193
30.71,1.20086
30.72,1.15979
30.73,1.14485
30.74,1.13776
30.75,1.13925
30.76,1.18891
30.77,1.23895
30.78,1.29682
30.79,1.36217
30.8,1.42752
30.81,1.36142
30.82,1.28039
30.83,1.23372
30.84,1.27927
30.85,1.32483
30.86,1.4137
30.87,1.52609
30.88,1.63251
30.89,1.48203
30.9,1.33118
30.91,1.24754
30.92,1.26583
30.93,1.2845
30.94,1.29645
30.95,1.30616
30.96,1.31363
30.97,1.30504
30.98,1.29645
30.99,1.26882
31,1.22326
31.01,1.17771
31.02,1.18443
31.03,1.19713
31.04,1.1975
31.05,1.16315
31.06,1.12917
31.07,1.18406
31.08,1.28936
31.09,1.39167
31.1,1.28786
31.11,1.18406
31.12,1.13141
31.13,1.16016
31.14,1.18854
31.15,1.24492
31.16,1.31027
31.17,1.35844
31.18,1.29608
31.19,1.23335
31.2,1.23895
31.21,1.30989
31.22,1.38121
31.23,1.37076
31.24,1.3491
31.25,1.32632
31.26,1.29944
31.27,1.27255
31.28,1.25426
31.29,1.24156
31.3,1.22887
31.31,1.23895
31.32,1.24866
31.33,1.24417
31.34,1.2158
31.35,1.18742
31.36,1.18891
31.37,1.20011
31.38,1.22028
31.39,1.30131
31.4,1.38271
31.41,1.37823
31.42,1.28861
31.43,1.19899
31.44,1.25351
31.45,1.32894
31.46,1.37599
31.47,1.3379
31.48,1.29944
31.49,1.3211
31.5,1.37935
31.51,1.4376
31.52,1.36441
31.53,1.29048
31.54,1.25948
31.55,1.30205
31.56,1.34499
31.57,1.33155
31.58,1.29869
31.59,1.27405
31.6,1.30952
31.61,1.34537
31.62,1.36404
31.63,1.36553
31.64,1.36665
31.65,1.33641
31.66,1.30056
31.67,1.27778
31.68,1.29496
31.69,1.31176
31.7,1.30989
31.71,1.2957
31.72,1.28114
31.73,1.29085
31.74,1.30093
31.75,1.29234
31.76,1.25127
31.77,1.20982
31.78,1.18966
31.79,1.17696
31.8,1.168
31.81,1.19227
31.82,1.21654
31.83,1.24268
31.84,1.27106
31.85,1.29944
31.86,1.3267
31.87,1.35358
31.88,1.36478
31.89,1.32184
31.9,1.27927
31.91,1.22476
31.92,1.16203
31.93,1.09967
31.94,1.19563
31.95,1.29533
31.96,1.32558
31.97,1.22887
31.98,1.13215
31.99,1.17995
32,1.28226
32.01,1.36665
32.02,1.28824
32.03,1.2102
32.04,1.17846
32.05,1.19862
32.06,1.21841
32.07,1.255
32.08,1.29496
32.09,1.32184
32.1,1.30317
32.11,1.28488
32.12,1.29608
32.13,1.32744
32.14,1.35881
32.15,1.28077
32.16,1.19974
32.17,1.17211
32.18,1.24604
32.19,1.31998
32.2,1.28152
32.21,1.19899
32.22,1.12879
32.23,1.17883
32.24,1.22849
32.25,1.23447
32.26,1.1904
32.27,1.14634
32.28,1.18107
32.29,1.23073
32.3,1.27629
32.31,1.30616
32.32,1.33603
32.33,1.35246
32.34,1.35956
32.35,1.36665
32.36,1.30952
32.37,1.24978
32.38,1.2102
32.39,1.2102
32.4,1.2102
32.41,1.23559
32.42,1.27106
32.43,1.29533
32.44,1.19862
32.45,1.10191
32.46,1.08287
32.47,1.15531
32.48,1.22775
32.49,1.28973
32.5,1.34947
32.51,1.3786
32.52,1.29048
32.53,1.20235
32.54,1.16203
32.55,1.15643
32.56,1.15082
32.57,1.15194
32.58,1.15306
32.59,1.14336
32.6,1.11087
32.61,1.07801
32.62,1.08436
32.63,1.10714
32.64,1.13103
32.65,1.17248
32.66,1.21356
32.67,1.22214
32.68,1.19115
32.69,1.15979
32.7,1.14709
32.71,1.1385
32.72,1.13701
32.73,1.16427
32.74,1.19115
32.75,1.18555
32.76,1.15568
32.77,1.12581
32.78,1.14448
32.79,1.16576
32.8,1.16949
32.81,1.13514
32.82,1.10116
32.83,1.09855
32.84,1.11012
32.85,1.12357
32.86,1.16613
32.87,1.2087
32.88,1.22887
32.89,1.22028
32.9,1.21169
32.91,1.1975
32.92,1.18182
32.93,1.168
32.94,1.1624
32.95,1.1568
32.96,1.18144
32.97,1.22961
32.98,1.27815
32.99,1.24903
33,1.21505
33.01,1.18816
33.02,1.17659
33.03,1.16539
33.04,1.16464
33.05,1.16875
33.06,1.17173
33.07,1.15194
33.08,1.13178
33.09,1.13776
33.1,1.17771
33.11,1.21729
33.12,1.23783
33.13,1.25351
33.14,1.25015
33.15,1.16053
33.16,1.07092
33.17,1.05523
33.18,1.09929
33.19,1.14373
33.2,1.2102
33.21,1.27815
33.22,1.33528
33.23,1.36665
33.24,1.39802
33.25,1.36105
33.26,1.29122
33.27,1.22289
33.28,1.17584
33.29,1.12879
33.3,1.09967
33.31,1.09369
33.32,1.08809
33.33,1.10751
33.34,1.1329
33.35,1.16165
33.36,1.20422
33.37,1.24679
33.38,1.27405
33.39,1.28824
33.4,1.30243
33.41,1.28786
33.42,1.27069
33.43,1.26882
33.44,1.3028
33.45,1.33715
33.46,1.32259
33.47,1.2845
33.48,1.24567
33.49,1.20459
33.5,1.16352
33.51,1.13141
33.52,1.11311
33.53,1.09444
33.54,1.13103
33.55,1.18219
33.56,1.22401
33.57,1.21692
33.58,1.20982
33.59,1.22476
33.6,1.25911
33.61,1.29309
33.62,1.24567
33.63,1.19003
33.64,1.13925
33.65,1.09929
33.66,1.05934
33.67,1.05262
33.68,1.06233
33.69,1.07428
33.7,1.13813
33.71,1.20198
33.72,1.23596
33.73,1.22588
33.74,1.21617
33.75,1.18182
33.76,1.14037
33.77,1.10452
33.78,1.09743
33.79,1.09033
33.8,1.08623
33.81,1.08473
33.82,1.08324
33.83,1.16165
33.84,1.24828
33.85,1.30243
33.86,1.27106
33.87,1.23969
33.88,1.20385
33.89,1.16539
33.9,1.12917
33.91,1.18182
33.92,1.23447
33.93,1.2509
33.94,1.21244
33.95,1.17398
33.96,1.14224
33.97,1.11236
33.98,1.09295
33.99,1.13253
34,1.17248
34.01,1.1863
34.02,1.17622
34.03,1.16651
34.04,1.17808
34.05,1.19227
34.06,1.18331
34.07,1.11087
34.08,1.03806
34.09,1.07353
34.1,1.16875
34.11,1.26322
34.12,1.30019
34.13,1.33715
34.14,1.32856
34.15,1.24903
34.16,1.16912
34.17,1.14298
34.18,1.1329
34.19,1.12245
34.2,1.10975
34.21,1.09705
34.22,1.09929
34.23,1.11647
34.24,1.13365
34.25,1.15568
34.26,1.17846
34.27,1.19078
34.28,1.1736
34.29,1.1568
34.3,1.12693
34.31,1.08996
34.32,1.05374
34.33,1.12058
34.34,1.18742
34.35,1.22289
34.36,1.20721
34.37,1.19153
34.38,1.16837
34.39,1.14298
34.4,1.1217
34.41,1.13178
34.42,1.14186
34.43,1.13365
34.44,1.10826
34.45,1.08249
34.46,1.09817
34.47,1.11946
34.48,1.13439
34.49,1.13029
34.5,1.12581
34.51,1.16949
34.52,1.24231
34.53,1.31475
34.54,1.31774
34.55,1.32035
34.56,1.32222
34.57,1.32222
34.58,1.32222
34.59,1.31064
34.6,1.29496
34.61,1.2789
34.62,1.26023
34.63,1.24193
34.64,1.24119
34.65,1.25799
34.66,1.27517
34.67,1.29981
34.68,1.3252
34.69,1.33753
34.7,1.30915
34.71,1.28077
34.72,1.29981
34.73,1.34798
34.74,1.39652
34.75,1.34462
34.76,1.29197
34.77,1.30429
34.78,1.42938
34.79,1.55485
34.8,1.54215
34.81,1.48091
34.82,1.43013
34.83,1.45851
34.84,1.48689
34.85,1.46486
34.86,1.38943
34.87,1.314
34.88,1.30243
34.89,1.30093
34.9,1.29682
34.91,1.28413
34.92,1.27106
34.93,1.2453
34.94,1.21132
34.95,1.17734
34.96,1.17398
34.97,1.17099
34.98,1.17622
34.99,1.19601
35,1.21617
35.01,1.22028
35.02,1.21878
35.03,1.21617
35.04,1.20347
35.05,1.19078
35.06,1.16165
35.07,1.1146
35.08,1.06793
35.09,1.10452
35.1,1.15568
35.11,1.19489
35.12,1.19339
35.13,1.19227
35.14,1.18368
35.15,1.17099
35.16,1.15829
35.17,1.1385
35.18,1.11871
35.19,1.12805
35.2,1.1919
35.21,1.25575
35.22,1.2438
35.23,1.20273
35.24,1.16651
35.25,1.17622
35.26,1.1863
35.27,1.17696
35.28,1.1456
35.29,1.11423
35.3,1.168
35.31,1.23783
35.32,1.27367
35.33,1.18854
35.34,1.10303
35.35,1.10378
35.36,1.16352
35.37,1.22326
35.38,1.18107
35.39,1.13551
35.4,1.11423
35.41,1.14
35.42,1.16539
35.43,1.12917
35.44,1.06793
35.45,1.01603
35.46,1.06009
35.47,1.10415
35.48,1.1273
35.49,1.12581
35.5,1.12469
35.51,1.13365
35.52,1.14522
35.53,1.16165
35.54,1.19713
35.55,1.2326
35.56,1.22177
35.57,1.17771
35.58,1.13365
35.59,1.24081
35.6,1.35433
35.61,1.38681
35.62,1.25463
35.63,1.12207
35.64,1.07129
35.65,1.05411
35.66,1.04366
35.67,1.10751
35.68,1.17136
35.69,1.19153
35.7,1.15904
35.71,1.12618
35.72,1.13103
35.73,1.1441
35.74,1.15232
35.75,1.14224
35.76,1.13215
35.77,1.10042
35.78,1.05187
35.79,1.0037
35.8,1.0037
35.81,1.00669
35.82,1.01901
35.83,1.05187
35.84,1.08436
35.85,1.07465
35.86,1.04627
35.87,1.02051
35.88,1.02872
35.89,1.03731
35.9,1.07614
35.91,1.15306
35.92,1.22999
35.93,1.16688
35.94,1.07316
35.95,1.00818
35.96,1.06532
35.97,1.12207
35.98,1.16763
35.99,1.20459
36,1.24156
36.01,1.22252
36.02,1.19974
36.03,1.17547
36.04,1.14858
36.05,1.1217
36.06,1.13477
36.07,1.16576
36.08,1.19489
36.09,1.19078
36.1,1.1863
36.11,1.16987
36.12,1.13701
36.13,1.10452
36.14,1.081
36.15,1.05971
36.16,1.04665
36.17,1.07092
36.18,1.09481
36.19,1.09369
36.2,1.07241
36.21,1.05113
36.22,1.11199
36.23,1.17883
36.24,1.18854
36.25,1.06905
36.26,0.94956
36.27,0.96674
36.28,1.04777
36.29,1.12506
36.3,1.14074
36.31,1.15643
36.32,1.13327
36.33,1.05785
36.34,0.98242
36.35,1.03582
36.36,1.12133
36.37,1.19414
36.38,1.20982
36.39,1.2255
36.4,1.17173
36.41,1.06083
36.42,0.94993
36.43,0.96226
36.44,0.98503
36.45,1.03059
36.46,1.13029
36.47,1.22961
36.48,1.21654
36.49,1.14858
36.5,1.08399
36.51,1.10415
36.52,1.12394
36.53,1.12058
36.54,1.08511
36.55,1.04963
36.56,1.06793
36.57,1.10079
36.58,1.12618
36.59,1.1146
36.6,1.1034
36.61,1.06345
36.62,0.9996
36.63,0.93574
36.64,0.96935
36.65,1.01192
36.66,1.0444
36.67,1.0515
36.68,1.05859
36.69,1.04216
36.7,1.01341
36.71,0.98615
36.72,0.99064
36.73,0.99474
36.74,0.99325
36.75,0.98317
36.76,0.97346
36.77,1.00706
36.78,1.05225
36.79,1.09033
36.8,1.08921
36.81,1.08772
36.82,1.07726
36.83,1.05859
36.84,1.0403
36.85,1.02163
36.86,1.00333
36.87,1.00184
36.88,1.0444
36.89,1.08735
36.9,1.11572
36.91,1.13701
36.92,1.15643
36.93,1.0978
36.94,1.03955
36.95,1.02835
36.96,1.0866
36.97,1.14485
36.98,1.15792
36.99,1.15792
37,1.1497
37.01,1.09407
37.02,1.0388
37.03,1.03768
37.04,1.08585
37.05,1.13439
37.06,1.09444
37.07,1.04478
37.08,1.0037
37.09,0.98503
37.1,0.96674
37.11,0.96636
37.12,0.97645
37.13,0.98727
37.14,1.0515
37.15,1.11535
37.16,1.16763
37.17,1.20161
37.18,1.23596
37.19,1.21878
37.2,1.18592
37.21,1.16352
37.22,1.20161
37.23,1.24007
37.24,1.22849
37.25,1.17024
37.26,1.11199
37.27,1.17398
37.28,1.2509
37.29,1.32184
37.3,1.37748
37.31,1.43274
37.32,1.48651
37.33,1.53916
37.34,1.59032
37.35,1.52348
37.36,1.45664
37.37,1.41557
37.38,1.41557
37.39,1.41557
37.4,1.43946
37.41,1.47046
37.42,1.49921
37.43,1.50892
37.44,1.519
37.45,1.53393
37.46,1.55373
37.47,1.57389
37.48,1.50966
37.49,1.43424
37.5,1.38271
37.51,1.39951
37.52,1.41669
37.53,1.43909
37.54,1.46486
37.55,1.48987
37.56,1.38756
37.57,1.28525
37.58,1.23969
37.59,1.28786
37.6,1.33641
37.61,1.36105
37.62,1.37823
37.63,1.39578
37.64,1.41706
37.65,1.43834
37.66,1.44768
37.67,1.44507
37.68,1.44208
37.69,1.4951
37.7,1.55634
37.71,1.58098
37.72,1.49398
37.73,1.40735
37.74,1.39204
37.75,1.42042
37.76,1.44917
37.77,1.3954
37.78,1.34126
37.79,1.33491
37.8,1.41034
37.81,1.48577
37.82,1.47046
37.83,1.42341
37.84,1.37636
37.85,1.32968
37.86,1.28264
37.87,1.26359
37.88,1.27367
37.89,1.28338
37.9,1.32296
37.91,1.36702
37.92,1.40847
37.93,1.44096
37.94,1.47382
37.95,1.51452
37.96,1.5597
37.97,1.60525
37.98,1.51638
37.99,1.42527
38,1.39988
38.01,1.49062
38.02,1.58173
38.03,1.57986
38.04,1.54439
38.05,1.51601
38.06,1.54588
38.07,1.57576
38.08,1.56642
38.09,1.51526
38.1,1.46411
38.11,1.45776
38.12,1.45925
38.13,1.4768
38.14,1.54775
38.15,1.61907
38.16,1.62579
38.17,1.58994
38.18,1.55447
38.19,1.56754
38.2,1.58173
38.21,1.63811
38.22,1.77179
38.23,1.90547
38.24,1.93161
38.25,1.91742
38.26,1.91667
38.27,2.03765
38.28,2.15864
38.29,2.25908
38.3,2.3375
38.31,2.41554
38.32,2.60933
38.33,2.82404
38.34,3.03837
38.35,3.25009
38.36,3.46181
38.37,3.79638
38.38,4.21459
38.39,4.63242
38.4,5.38408
38.41,6.14619
38.42,7.14878
38.43,8.61214
38.44,10.07513
38.45,12.02055
38.46,14.15641
38.47,16.32812
38.48,18.86053
38.49,21.39294
38.5,24.00078
38.51,26.69524
38.52,29.38971
38.53,32.09389
38.54,34.79993
38.55,37.65384
38.56,41.05479
38.57,44.4561
38.58,48.33687
38.59,52.55594
38.6,56.77463
38.61,61.59711
38.62,66.44462
38.63,71.13529
38.64,75.51492
38.65,79.89418
38.66,83.39295
38.67,86.5299
38.68,89.30951
38.69,88.11798
38.7,86.92608
38.71,81.80712
38.72,72.01167
38.73,62.21621
38.74,54.38411
38.75,46.95341
38.76,40.96368
38.77,40.58542
38.78,40.20716
38.79,38.37936
38.8,35.49409
38.81,32.60918
38.82,26.36628
38.83,19.95459
38.84,14.44206
38.85,10.78646
38.86,7.13085
38.87,5.48714
38.88,4.70486
38.89,3.96142
38.9,3.69817
38.91,3.4353
38.92,3.1657
38.93,2.88864
38.94,2.6112
38.95,2.46856
38.96,2.35467
38.97,2.25609
38.98,2.21913
38.99,2.18216
39,2.08769
39.01,1.94953
39.02,1.81175
39.03,1.79457
39.04,1.78449
39.05,1.78561
39.06,1.80951
39.07,1.83378
39.08,1.79905
39.09,1.73781
39.1,1.67919
39.11,1.65641
39.12,1.63363
39.13,1.66201
39.14,1.75611
39.15,1.84983
39.16,1.77142
39.17,1.65342
39.18,1.54999
39.19,1.51004
39.2,1.47046
39.21,1.49211
39.22,1.56157
39.23,1.63139
39.24,1.55485
39.25,1.46784
39.26,1.41557
39.27,1.43984
39.28,1.46374
39.29,1.44917
39.3,1.41669
39.31,1.38047
39.32,1.28936
39.33,1.19862
39.34,1.17808
39.35,1.25052
39.36,1.32296
39.37,1.3084
39.38,1.27293
39.39,1.25762
39.4,1.33603
39.41,1.41407
39.42,1.45925
39.43,1.47792
39.44,1.49622
39.45,1.37001
39.46,1.23185
39.47,1.16165
39.48,1.24828
39.49,1.33491
39.5,1.32595
39.51,1.27031
39.52,1.21505
39.53,1.1624
39.54,1.10975
39.55,1.11311
39.56,1.19265
39.57,1.27255
39.58,1.25463
39.59,1.21206
39.6,1.19227
39.61,1.28301
39.62,1.37412
39.63,1.32408
39.64,1.15643
39.65,0.98877
39.66,1.10042
39.67,1.23671
39.68,1.33491
39.69,1.34089
39.7,1.34649
39.71,1.3435
39.72,1.33641
39.73,1.32558
39.74,1.22326
39.75,1.12095
39.76,1.08511
39.77,1.14336
39.78,1.20161
39.79,1.23857
39.8,1.26994
39.81,1.28152
39.82,1.1919
39.83,1.10228
39.84,1.1049
39.85,1.18742
39.86,1.26994
39.87,1.26434
39.88,1.25015
39.89,1.23335
39.9,1.20908
39.91,1.1848
39.92,1.20571
39.93,1.24978
39.94,1.29085
39.95,1.24231
39.96,1.19414
39.97,1.17734
39.98,1.20721
39.99,1.23708
40,1.17846
40.01,1.09444
40.02,1.03395
40.03,1.10228
40.04,1.17061
40.05,1.20571
40.06,1.21132
40.07,1.21729
40.08,1.20347
40.09,1.18779
40.1,1.168
40.11,1.13664
40.12,1.10527
40.13,1.11012
40.14,1.13439
40.15,1.15792
40.16,1.15082
40.17,1.14336
40.18,1.15157
40.19,1.18294
40.2,1.2143
40.21,1.23111
40.22,1.24417
40.23,1.25948
40.24,1.29085
40.25,1.32222
40.26,1.31437
40.27,1.27031
40.28,1.22625
40.29,1.2214
40.3,1.2214
40.31,1.22364
40.32,1.23223
40.33,1.24081
40.34,1.29309
40.35,1.36964
40.36,1.44507
40.37,1.4081
40.38,1.37113
40.39,1.35881
40.4,1.38569
40.41,1.41295
40.42,1.38793
40.43,1.34649
40.44,1.30541
40.45,1.26397
40.46,1.22289
40.47,1.19489
40.48,1.1792
40.49,1.16352
40.5,1.13141
40.51,1.09743
40.52,1.06009
40.53,1.01304
40.54,0.96599
40.55,1.01976
40.56,1.13215
40.57,1.24343
40.58,1.17808
40.59,1.11274
40.6,1.08623
40.61,1.12319
40.62,1.16016
40.63,1.15829
40.64,1.1441
40.65,1.14074
40.66,1.21206
40.67,1.28301
40.68,1.2677
40.69,1.16688
40.7,1.06569
40.71,1.11199
40.72,1.17883
40.73,1.21692
40.74,1.16837
40.75,1.12021
40.76,1.07428
40.77,1.03022
40.78,0.98615
40.79,1.01864
40.8,1.0515
40.81,1.07838
40.82,1.09556
40.83,1.11236
40.84,1.12319
40.85,1.13178
40.86,1.1329
40.87,1.08025
40.88,1.0276
40.89,1.01304
40.9,1.03731
40.91,1.06121
40.92,1.0683
40.93,1.07241
40.94,1.07353
40.95,1.06532
40.96,1.05673
40.97,1.06382
40.98,1.081
40.99,1.09817
41,1.09967
41.01,1.10116
41.02,1.10191
41.03,1.10191
41.04,1.10191
41.05,1.1049
41.06,1.10938
41.07,1.10863
41.08,1.06718
41.09,1.02611
41.1,1.0388
41.11,1.10826
41.12,1.17808
41.13,1.14
41.14,1.08473
41.15,1.06158
41.16,1.1456
41.17,1.22961
41.18,1.20385
41.19,1.10714
41.2,1.01043
41.21,1.04777
41.22,1.08735
41.23,1.10639
41.24,1.08809
41.25,1.06942
41.26,1.03246
41.27,0.98839
41.28,0.95516
41.29,1.01789
41.3,1.08025
41.31,1.08996
41.32,1.04179
41.33,0.99325
41.34,0.98615
41.35,0.98615
41.36,0.98242
41.37,0.96524
41.38,0.94807
41.39,0.96076
41.4,0.99362
41.41,1.02648
41.42,1.03843
41.43,1.04963
41.44,1.05598
41.45,1.05337
41.46,1.05038
41.47,0.99437
41.48,0.91745
41.49,0.85285
41.5,0.90251
41.51,0.95217
41.52,0.98541
41.53,0.9996
41.54,1.01379
41.55,1.03171
41.56,1.05001
41.57,1.06793
41.58,1.08361
41.59,1.09929
41.6,1.0754
41.61,1.02424
41.62,0.97309
41.63,0.94919
41.64,0.92641
41.65,0.92454
41.66,0.963
41.67,1.00109
41.68,1.02461
41.69,1.04142
41.7,1.05486
41.71,1.0276
41.72,1.00072
41.73,0.99213
41.74,1.00482
41.75,1.01752
41.76,1.00333
41.77,0.98317
41.78,0.9589
41.79,0.91782
41.8,0.87637
41.81,0.90625
41.82,0.98727
41.83,1.0683
41.84,1.09369
41.85,1.11647
41.86,1.12991
41.87,1.12431
41.88,1.11871
41.89,1.05971
41.9,0.97869
41.91,0.90625
41.92,0.93462
41.93,0.963
41.94,0.98653
41.95,1.00333
41.96,1.02051
41.97,1.02461
41.98,1.02611
41.99,1.03171
42,1.05449
42.01,1.07726
42.02,1.06158
42.03,1.01752
42.04,0.97346
42.05,1.00072
42.06,1.03208
42.07,1.05337
42.08,1.05337
42.09,1.05337
42.1,1.04739
42.11,1.0388
42.12,1.03096
42.13,1.03246
42.14,1.03395
42.15,1.02275
42.16,0.99586
42.17,0.9686
42.18,0.98354
42.19,1.00781
42.2,1.0332
42.21,1.06457
42.22,1.09593
42.23,1.0795
42.24,1.02723
42.25,0.97458
42.26,0.97122
42.27,0.97122
42.28,0.95964
42.29,0.92268
42.3,0.88571
42.31,0.90065
42.32,0.93873
42.33,0.97794
42.34,1.02611
42.35,1.07465
42.36,1.10676
42.37,1.11834
42.38,1.12954
42.39,1.10079
42.4,1.06233
42.41,1.02387
42.42,0.98541
42.43,0.94732
42.44,0.96039
42.45,1.01416
42.46,1.0683
42.47,1.03768
42.48,1.00072
42.49,0.97943
42.5,0.99362
42.51,1.00781
42.52,1.01416
42.53,1.01715
42.54,1.01715
42.55,0.96898
42.56,0.92044
42.57,0.8831
42.58,0.86032
42.59,0.83754
42.6,0.85136
42.61,0.87413
42.62,0.90475
42.63,0.97309
42.64,1.04104
42.65,1.05897
42.66,1.0347
42.67,1.01043
42.68,0.98093
42.69,0.95105
42.7,0.93985
42.71,0.97234
42.72,1.0052
42.73,0.994
42.74,0.96151
42.75,0.93089
42.76,0.94956
42.77,0.96786
42.78,0.99549
42.79,1.03507
42.8,1.07502
42.81,1.05187
42.82,1.01192
42.83,0.97981
42.84,0.98541
42.85,0.99101
42.86,1.03656
42.87,1.1161
42.88,1.19601
42.89,1.10938
42.9,1.00669
42.91,0.95105
42.92,1.0108
42.93,1.07054
42.94,1.0683
42.95,1.03395
42.96,1.00034
42.97,0.97757
42.98,0.95479
42.99,0.93537
43,0.92118
43.01,0.90699
43.02,0.94396
43.03,0.99512
43.04,1.02798
43.05,0.96263
43.06,0.89728
43.07,0.90214
43.08,0.96898
43.09,1.03582
43.1,0.98951
43.11,0.93126
43.12,0.90027
43.13,0.93985
43.14,0.97981
43.15,0.97495
43.16,0.94657
43.17,0.91782
43.18,0.87675
43.19,0.8353
43.2,0.85098
43.21,0.95217
43.22,1.05299
43.23,1.06793
43.24,1.05822
43.25,1.05225
43.26,1.06905
43.27,1.08623
43.28,1.12058
43.29,1.17024
43.3,1.2199
43.31,1.13066
43.32,1.02573
43.33,0.9757
43.34,1.0754
43.35,1.17472
43.36,1.19825
43.37,1.17995
43.38,1.16277
43.39,1.21654
43.4,1.27069
43.41,1.28973
43.42,1.25388
43.43,1.21841
43.44,1.21766
43.45,1.22775
43.46,1.23521
43.47,1.22812
43.48,1.22102
43.49,1.22999
43.5,1.25426
43.51,1.27853
43.52,1.25724
43.53,1.22999
43.54,1.21841
43.55,1.24978
43.56,1.28114
43.57,1.29048
43.58,1.28786
43.59,1.28488
43.6,1.2733
43.61,1.2621
43.62,1.227
43.63,1.15456
43.64,1.08212
43.65,1.10751
43.66,1.16464
43.67,1.2087
43.68,1.17061
43.69,1.13215
43.7,1.13327
43.71,1.17323
43.72,1.21281
43.73,1.28264
43.74,1.35657
43.75,1.39727
43.76,1.34051
43.77,1.28376
43.78,1.2214
43.79,1.15605
43.8,1.09071
43.81,1.1863
43.82,1.28152
43.83,1.32856
43.84,1.29608
43.85,1.26322
43.86,1.25276
43.87,1.25015
43.88,1.24679
43.89,1.24119
43.9,1.23559
43.91,1.20945
43.92,1.1624
43.93,1.11535
43.94,1.13551
43.95,1.16539
43.96,1.19526
43.97,1.22513
43.98,1.255
43.99,1.26957
44,1.27554
44.01,1.28114
44.02,1.29234
44.03,1.30392
44.04,1.28488
44.05,1.21393
44.06,1.14261
44.07,1.17398
44.08,1.24081
44.09,1.2957
44.1,1.26172
44.11,1.22775
44.12,1.21094
44.13,1.21244
44.14,1.21356
44.15,1.20049
44.16,1.1848
44.17,1.19302
44.18,1.27853
44.19,1.36366
44.2,1.36404
44.21,1.30989
44.22,1.25575
44.23,1.29832
44.24,1.34238
44.25,1.35956
44.26,1.32819
44.27,1.29682
44.28,1.30952
44.29,1.3379
44.3,1.36553
44.31,1.38831
44.32,1.41109
44.33,1.41482
44.34,1.39764
44.35,1.38084
44.36,1.41706
44.37,1.46261
44.38,1.5022
44.39,1.52199
44.4,1.54215
44.41,1.53543
44.42,1.51116
44.43,1.48726
44.44,1.53916
44.45,1.59331
44.46,1.65044
44.47,1.71279
44.48,1.77553
44.49,1.77926
44.5,1.76096
44.51,1.75125
44.52,1.8222
44.53,1.89315
44.54,1.96036
44.55,2.02309
44.56,2.08545
44.57,2.27327
44.58,2.4835
44.59,2.65451
44.6,2.68439
44.61,2.71426
44.62,2.8091
44.63,2.94838
44.64,3.08766
44.65,3.55591
44.66,4.03498
44.67,4.53571
44.68,5.07752
44.69,5.61895
44.7,6.57299
44.71,7.69058
44.72,8.8907
44.73,10.93134
44.74,12.97161
44.75,15.43046
44.76,18.37398
44.77,21.31751
44.78,24.33684
44.79,27.3711
44.8,30.42852
44.81,33.57107
44.82,36.71324
44.83,40.06303
44.84,43.55957
44.85,47.0561
44.86,51.4376
44.87,55.85681
44.88,60.48811
44.89,65.54285
44.9,70.59797
44.91,75.71394
44.92,80.85569
44.93,85.9291
44.94,90.23031
44.95,94.53153
44.96,97.45489
44.97,98.72745
44.98,100
44.99,95.11964
45,88.97008
45.01,81.76156
45.02,70.39484
45.03,59.02811
45.04,52.20643
45.05,48.71848
45.06,45.23054
45.07,44.60322
45.08,44.12415
45.09,43.13239
45.1,41.07458
45.11,39.01713
45.12,33.98928
45.13,27.68028
45.14,21.46837
45.15,16.49876
45.16,11.52916
45.17,8.12037
45.18,6.64618
45.19,5.17162
45.2,4.53347
45.21,4.07867
45.22,3.65784
45.23,3.37891
45.24,3.10036
45.25,2.85242
45.26,2.62763
45.27,2.40321
45.28,2.35803
45.29,2.32368
45.3,2.25684
45.31,2.11906
45.32,1.9809
45.33,1.87074
45.34,1.77254
45.35,1.67807
45.36,1.63849
45.37,1.59853
45.38,1.60787
45.39,1.68031
45.4,1.75312
45.41,1.69711
45.42,1.61198
45.43,1.54999
45.44,1.58957
45.45,1.62953
45.46,1.61459
45.47,1.55597
45.48,1.49771
45.49,1.47942
45.5,1.46374
45.51,1.45552
45.52,1.46411
45.53,1.4727
45.54,1.45776
45.55,1.43237
45.56,1.40436
45.57,1.33454
45.58,1.26471
45.59,1.22102
45.6,1.21094
45.61,1.20086
45.62,1.21841
45.63,1.24268
45.64,1.26546
45.65,1.28264
45.66,1.29981
45.67,1.26322
45.68,1.18368
45.69,1.10415
45.7,1.05747
45.71,1.01341
45.72,0.99512
45.73,1.03768
45.74,1.08062
45.75,1.11348
45.76,1.14186
45.77,1.16912
45.78,1.16613
45.79,1.16315
45.8,1.16987
45.81,1.19003
45.82,1.20982
45.83,1.18331
45.84,1.14485
45.85,1.10714
45.86,1.07166
45.87,1.03619
45.88,1.01827
45.89,1.01528
45.9,1.01267
45.91,1.04889
45.92,1.08847
45.93,1.10415
45.94,1.06009
45.95,1.01603
45.96,1.03134
45.97,1.07689
45.98,1.11983
45.99,1.09705
46,1.07428
46.01,1.0698
46.02,1.09108
46.03,1.11236
46.04,1.10452
46.05,1.08884
46.06,1.07092
46.07,1.04104
46.08,1.01117
46.09,0.99288
46.1,0.98429
46.11,0.9757
46.12,0.99288
46.13,1.01304
46.14,1.0164
46.15,0.97794
46.16,0.93948
46.17,0.96935
46.18,1.0347
46.19,1.09705
46.2,1.05859
46.21,1.02013
46.22,0.99624
46.23,0.99325
46.24,0.99064
46.25,1.00744
46.26,1.03022
46.27,1.04478
46.28,1.01192
46.29,0.97943
46.3,0.99138
46.31,1.04403
46.32,1.09668
46.33,1.03656
46.34,0.96412
46.35,0.92044
46.36,0.95329
46.37,0.98578
46.38,0.96786
46.39,0.9223
46.4,0.87861
46.41,0.9055
46.42,0.93238
46.43,0.95217
46.44,0.96076
46.45,0.96935
46.46,0.94919
46.47,0.92081
46.48,0.90139
46.49,0.93574
46.5,0.96972
46.51,0.98167
46.52,0.97309
46.53,0.9645
46.54,0.95217
46.55,0.93948
46.56,0.92417
46.57,0.90139
46.58,0.87861
46.59,0.90214
46.6,0.95217
46.61,1.00072
46.62,0.98093
46.63,0.96114
46.64,0.9406
46.65,0.91932
46.66,0.89803
46.67,0.90363
46.68,0.91782
46.69,0.92417
46.7,0.87861
46.71,0.83306
46.72,0.83082
46.73,0.87077
46.74,0.91073
46.75,0.88384
46.76,0.84837
46.77,0.83866
46.78,0.90401
46.79,0.96935
46.8,0.97196
46.81,0.93799
46.82,0.90401
46.83,0.88683
46.84,0.86965
46.85,0.85472
46.86,0.84351
46.87,0.83231
46.88,0.84874
46.89,0.87413
46.9,0.89131
46.91,0.85173
46.92,0.81178
46.93,0.81551
46.94,0.86256
46.95,0.90923
46.96,0.89654
46.97,0.87525
46.98,0.8648
46.99,0.88758
47,0.91035
47.01,0.8984
47.02,0.86592
47.03,0.83306
47.04,0.87003
47.05,0.90699
47.06,0.91969
47.07,0.89131
47.08,0.86256
47.09,0.82148
47.1,0.77593
47.11,0.74494
47.12,0.82186
47.13,0.89878
47.14,0.90699
47.15,0.84426
47.16,0.78153
47.17,0.78452
47.18,0.79721
47.19,0.81364
47.2,0.84202
47.21,0.87077
47.22,0.87563
47.23,0.86555
47.24,0.85546
47.25,0.87525
47.26,0.89504
47.27,0.90065
47.28,0.88048
47.29,0.86069
47.3,0.88048
47.31,0.91483
47.32,0.9406
47.33,0.90102
47.34,0.86106
47.35,0.83157
47.36,0.81327
47.37,0.7946
47.38,0.79684
47.39,0.80244
47.4,0.80319
47.41,0.7875
47.42,0.77219
47.43,0.75465
47.44,0.73635
47.45,0.71768
47.46,0.72701
47.47,0.7371
47.48,0.76547
47.49,0.82821
47.5,0.89056
47.51,0.88608
47.52,0.85621
47.53,0.83231
47.54,0.86218
47.55,0.89206
47.56,0.90438
47.57,0.89728
47.58,0.89019
47.59,0.85509
47.6,0.81551
47.61,0.79572
47.62,0.84538
47.63,0.89504
47.64,0.89392
47.65,0.85845
47.66,0.82298
47.67,0.79684
47.68,0.77145
47.69,0.77294
47.7,0.82559
47.71,0.87787
47.72,0.88758
47.73,0.88048
47.74,0.87264
47.75,0.85696
47.76,0.84127
47.77,0.82447
47.78,0.8058
47.79,0.7875
47.8,0.78078
47.81,0.77668
47.82,0.78265
47.83,0.82522
47.84,0.86779
47.85,0.90139
47.86,0.92828
47.87,0.95516
47.88,0.89206
47.89,0.82522
47.9,0.79049
47.91,0.81887
47.92,0.84725
47.93,0.85546
47.94,0.85546
47.95,0.85472
47.96,0.84762
47.97,0.84053
47.98,0.82559
47.99,0.80169
48,0.77742
48.01,0.75203
48.02,0.72627
48.03,0.71021
48.04,0.73
48.05,0.75016
48.06,0.75689
48.07,0.7539
48.08,0.75091
48.09,0.76025
48.1,0.77033
48.11,0.76771
48.12,0.73934
48.13,0.71096
48.14,0.73822
48.15,0.78937
48.16,0.83567
48.17,0.82148
48.18,0.80729
48.19,0.79124
48.2,0.77257
48.21,0.75427
48.22,0.77556
48.23,0.80543
48.24,0.81738
48.25,0.75763
48.26,0.69789
48.27,0.68781
48.28,0.71506
48.29,0.74195
48.3,0.72851
48.31,0.71282
48.32,0.70461
48.33,0.7117
48.34,0.7188
48.35,0.74979
48.36,0.79087
48.37,0.82746
48.38,0.80057
48.39,0.77332
48.4,0.7595
48.41,0.76249
48.42,0.76547
48.43,0.73
48.44,0.68594
48.45,0.66204
48.46,0.7244
48.47,0.78713
48.48,0.79124
48.49,0.74979
48.5,0.70872
48.51,0.76211
48.52,0.82186
48.53,0.848
48.54,0.79945
48.55,0.75128
48.56,0.7524
48.57,0.77668
48.58,0.80057
48.59,0.82036
48.6,0.84053
48.61,0.83679
48.62,0.80281
48.63,0.76883
48.64,0.77033
48.65,0.78004
48.66,0.77929
48.67,0.72963
48.68,0.67959
48.69,0.67026
48.7,0.69303
48.71,0.71581
48.72,0.74494
48.73,0.77481
48.74,0.7946
48.75,0.79012
48.76,0.78601
48.77,0.79983
48.78,0.8226
48.79,0.84277
48.8,0.81439
48.81,0.78601
48.82,0.76659
48.83,0.7595
48.84,0.7524
48.85,0.73485
48.86,0.71506
48.87,0.70312
48.88,0.72851
48.89,0.75427
48.9,0.74419
48.91,0.70424
48.92,0.66428
48.93,0.67436
48.94,0.68855
48.95,0.69266
48.96,0.67287
48.97,0.65308
48.98,0.65495
48.99,0.66764
49,0.68034
49.01,0.68893
49.02,0.69751
49.03,0.73747
49.04,0.82111
49.05,0.90513
49.06,0.84949
49.07,0.75726
49.08,0.68071
49.09,0.68482
49.1,0.6893
49.11,0.73112
49.12,0.80505
49.13,0.87899
49.14,0.83978
49.15,0.79012
49.16,0.75465
49.17,0.75465
49.18,0.75465
49.19,0.7707
49.2,0.7946
49.21,0.81738
49.22,0.7946
49.23,0.77182
49.24,0.75913
49.25,0.76025
49.26,0.76174
49.27,0.69639
49.28,0.61275
49.29,0.55488
49.3,0.63889
49.31,0.72253
49.32,0.75539
49.33,0.7427
49.34,0.72963
49.35,0.70162
49.36,0.67175
49.37,0.63777
49.38,0.59371
49.39,0.54965
49.4,0.58176
49.41,0.6542
49.42,0.72515
49.43,0.73485
49.44,0.74494
49.45,0.72664
49.46,0.6654
49.47,0.60416
49.48,0.6023
49.49,0.61798
49.5,0.62993
49.51,0.61985
49.52,0.61014
49.53,0.61649
49.54,0.63777
49.55,0.65905
49.56,0.70088
49.57,0.74494
49.58,0.77294
49.59,0.75726
49.6,0.74158
49.61,0.71394
49.62,0.67996
49.63,0.64711
49.64,0.68407
49.65,0.72104
49.66,0.72067
49.67,0.66241
49.68,0.60416
49.69,0.59782
49.7,0.6079
49.71,0.61537
49.72,0.60827
49.73,0.60118
49.74,0.59707
49.75,0.59558
49.76,0.59408
49.77,0.62433
49.78,0.65831
49.79,0.68557
49.8,0.69266
49.81,0.69975
49.82,0.69975
49.83,0.69527
49.84,0.69079
49.85,0.66391
49.86,0.63702
49.87,0.63478
49.88,0.67324
49.89,0.7117
49.9,0.73411
49.91,0.75091
49.92,0.76099
49.93,0.72403
49.94,0.68706
49.95,0.66876
49.96,0.66876
49.97,0.66876
49.98,0.72104
49.99,0.78078
50,0.81551
50.01,0.77556
50.02,0.73598
50.03,0.7132
50.04,0.70013
50.05,0.68743
50.06,0.7061
50.07,0.7244
50.08,0.73598
50.09,0.73598
50.1,0.73598
50.11,0.68071
50.12,0.60678
50.13,0.55151
50.14,0.63105
50.15,0.71058
50.16,0.73672
50.17,0.70834
50.18,0.67996
50.19,0.66391
50.2,0.64972
50.21,0.64935
50.22,0.69191
50.23,0.73448
50.24,0.72365
50.25,0.67959
50.26,0.63553
50.27,0.67175
50.28,0.70872
50.29,0.73224
50.3,0.73224
50.31,0.73224
50.32,0.69863
50.33,0.65308
50.34,0.61387
50.35,0.62545
50.36,0.63665
50.37,0.62657
50.38,0.59408
50.39,0.56122
50.4,0.59334
50.41,0.63628
50.42,0.67212
50.43,0.68631
50.44,0.7005
50.45,0.6949
50.46,0.67623
50.47,0.65793
50.48,0.67436
50.49,0.69154
50.5,0.68818
50.51,0.64823
50.52,0.60864
50.53,0.64038
50.54,0.69863
50.55,0.7539
50.56,0.78078
50.57,0.80767
50.58,0.78041
50.59,0.69341
50.6,0.60678
50.61,0.59184
50.62,0.58885
50.63,0.58773
50.64,0.59371
50.65,0.59931
50.66,0.58624
50.67,0.56048
50.68,0.53508
50.69,0.58699
50.7,0.64113
50.71,0.66167
50.72,0.62059
50.73,0.57952
50.74,0.58027
50.75,0.59744
50.76,0.61201
50.77,0.60342
50.78,0.59483
50.79,0.58699
50.8,0.57989
50.81,0.5728
50.82,0.58027
50.83,0.58997
50.84,0.59968
50.85,0.60827
50.86,0.61686
50.87,0.59819
50.88,0.56122
50.89,0.52426
50.9,0.52463
50.91,0.52575
50.92,0.53845
50.93,0.57243
50.94,0.60678
50.95,0.6135
50.96,0.60902
50.97,0.60977
50.98,0.65943
50.99,0.70909
51,0.70722
51.01,0.64449
51.02,0.58176
51.03,0.60977
51.04,0.65532
51.05,0.69154
51.06,0.69303
51.07,0.69415
51.08,0.671
51.09,0.62956
51.1,0.58848
51.11,0.66279
51.12,0.74232
51.13,0.77294
51.14,0.70498
51.15,0.63665
51.16,0.64262
51.17,0.67959
51.18,0.70946
51.19,0.6598
51.2,0.61014
51.21,0.58213
51.22,0.58064
51.23,0.57952
51.24,0.60864
51.25,0.64412
51.26,0.67698
51.27,0.69975
51.28,0.72253
51.29,0.70834
51.3,0.66727
51.31,0.62619
51.32,0.61985
51.33,0.61574
51.34,0.6064
51.35,0.58624
51.36,0.56645
51.37,0.54181
51.38,0.51455
51.39,0.4914
51.4,0.51529
51.41,0.53957
51.42,0.55002
51.43,0.54255
51.44,0.53546
51.45,0.56234
51.46,0.59632
51.47,0.62507
51.48,0.63068
51.49,0.63628
51.5,0.65084
51.51,0.6725
51.52,0.69378
51.53,0.67623
51.54,0.65644
51.55,0.63329
51.56,0.60342
51.57,0.57355
51.58,0.58661
51.59,0.61947
51.6,0.64711
51.61,0.59856
51.62,0.55039
51.63,0.54106
51.64,0.58251
51.65,0.62358
51.66,0.61873
51.67,0.60304
51.68,0.58549
51.69,0.5601
51.7,0.53434
51.71,0.53359
51.72,0.55189
51.73,0.57056
51.74,0.56122
51.75,0.54965
51.76,0.56421
51.77,0.63665
51.78,0.70909
51.79,0.71096
51.8,0.67959
51.81,0.64972
51.82,0.64561
51.83,0.6415
51.84,0.62619
51.85,0.59632
51.86,0.56645
51.87,0.58213
51.88,0.60902
51.89,0.6303
51.9,0.6247
51.91,0.6191
51.92,0.57989
51.93,0.51305
51.94,0.44622
51.95,0.54479
51.96,0.65719
51.97,0.70088
51.98,0.58288
51.99,0.46489
52,0.46713
52.01,0.52836
52.02,0.58699
52.03,0.5911
52.04,0.5952
52.05,0.58661
52.06,0.55936
52.07,0.53247
52.08,0.52687
52.09,0.52687
52.1,0.53172
52.11,0.5616
52.12,0.59147
52.13,0.58213
52.14,0.53957
52.15,0.497
52.16,0.52314
52.17,0.556
52.18,0.57243
52.19,0.54965
52.2,0.52724
52.21,0.5362
52.22,0.56197
52.23,0.58736
52.24,0.61014
52.25,0.63292
52.26,0.63292
52.27,0.60006
52.28,0.56757
52.29,0.5728
52.3,0.58848
52.31,0.60155
52.32,0.60155
52.33,0.60155
52.34,0.58475
52.35,0.55375
52.36,0.52239
52.37,0.52836
52.38,0.53845
52.39,0.55039
52.4,0.56757
52.41,0.58437
52.42,0.57093
52.43,0.54106
52.44,0.51231
52.45,0.52799
52.46,0.54367
52.47,0.54666
52.48,0.53098
52.49,0.51529
52.5,0.53733
52.51,0.57018
52.52,0.59782
52.53,0.59782
52.54,0.59782
52.55,0.6023
52.56,0.61089
52.57,0.61947
52.58,0.60491
52.59,0.58773
52.6,0.57952
52.61,0.5952
52.62,0.61089
52.63,0.62022
52.64,0.62582
52.65,0.63068
52.66,0.6023
52.67,0.57392
52.68,0.5433
52.69,0.50932
52.7,0.47497
52.71,0.52052
52.72,0.59035
52.73,0.65009
52.74,0.65009
52.75,0.65009
52.76,0.60304
52.77,0.51193
52.78,0.4212
52.79,0.45144
52.8,0.497
52.81,0.53023
52.82,0.52874
52.83,0.52724
52.84,0.52612
52.85,0.52463
52.86,0.52314
52.87,0.53023
52.88,0.53733
52.89,0.55002
52.9,0.5713
52.91,0.59259
52.92,0.57205
52.93,0.5377
52.94,0.50969
52.95,0.52127
52.96,0.53247
52.97,0.52575
52.98,0.50148
52.99,0.47758
53,0.46451
53.01,0.45331
53.02,0.46152
53.03,0.52687
53.04,0.59222
53.05,0.5672
53.06,0.48916
53.07,0.41112
53.08,0.41821
53.09,0.4253
53.1,0.4436
53.11,0.48057
53.12,0.51753
53.13,0.53845
53.14,0.55413
53.15,0.56794
53.16,0.56794
53.17,0.56794
53.18,0.57355
53.19,0.58512
53.2,0.59632
53.21,0.58773
53.22,0.57653
53.23,0.56234
53.24,0.53957
53.25,0.51679
53.26,0.51978
53.27,0.53807
53.28,0.55674
53.29,0.53396
53.3,0.51119
53.31,0.5026
53.32,0.51828
53.33,0.53396
53.34,0.54442
53.35,0.55301
53.36,0.56309
53.37,0.58587
53.38,0.60864
53.39,0.61761
53.4,0.61163
53.41,0.60603
53.42,0.55375
53.43,0.49401
53.44,0.45256
53.45,0.46974
53.46,0.48654
53.47,0.50708
53.48,0.52986
53.49,0.55263
53.5,0.52202
53.51,0.49102
53.52,0.47907
53.53,0.50185
53.54,0.52463
53.55,0.5433
53.56,0.5601
53.57,0.57168
53.58,0.53583
53.59,0.50036
53.6,0.5026
53.61,0.54517
53.62,0.58811
53.63,0.54405
53.64,0.4858
53.65,0.45144
53.66,0.497
53.67,0.54255
53.68,0.57093
53.69,0.58773
53.7,0.60491
53.71,0.6247
53.72,0.64449
53.73,0.65756
53.74,0.65756
53.75,0.65756
53.76,0.64524
53.77,0.62806
53.78,0.61163
53.79,0.60192
53.8,0.59184
53.81,0.57317
53.82,0.54479
53.83,0.51641
53.84,0.49849
53.85,0.48318
53.86,0.48206
53.87,0.53359
53.88,0.58475
53.89,0.57243
53.9,0.51679
53.91,0.46115
53.92,0.48318
53.93,0.50745
53.94,0.52986
53.95,0.55002
53.96,0.56981
53.97,0.55413
53.98,0.52426
53.99,0.497
54,0.497
54.01,0.497
54.02,0.49886
54.03,0.50335
54.04,0.50745
54.05,0.51903
54.06,0.53172
54.07,0.54106
54.08,0.53658
54.09,0.53247
54.1,0.52127
54.11,0.50596
54.12,0.49028
54.13,0.51978
54.14,0.55077
54.15,0.55973
54.16,0.52426
54.17,0.48878
54.18,0.45219
54.19,0.41522
54.2,0.38946
54.21,0.49065
54.22,0.59147
54.23,0.62433
54.24,0.57579
54.25,0.52762
54.26,0.57952
54.27,0.65233
54.28,0.69341
54.29,0.61387
54.3,0.53434
54.31,0.48281
54.32,0.45144
54.33,0.42008
54.34,0.50783
54.35,0.60192
54.36,0.65383
54.37,0.61985
54.38,0.58549
54.39,0.54069
54.4,0.49065
54.41,0.44622
54.42,0.46601
54.43,0.48617
54.44,0.51791
54.45,0.56496
54.46,0.61201
54.47,0.61201
54.48,0.60192
54.49,0.59483
54.5,0.59931
54.51,0.60342
54.52,0.57765
54.53,0.52948
54.54,0.48094
54.55,0.47011
54.56,0.4619
54.57,0.46526
54.58,0.49513
54.59,0.525
54.6,0.54815
54.61,0.56794
54.62,0.58475
54.63,0.55637
54.64,0.52799
54.65,0.53882
54.66,0.60006
54.67,0.66129
54.68,0.61462
54.69,0.54367
54.7,0.48804
54.71,0.49924
54.72,0.51081
54.73,0.49886
54.74,0.46899
54.75,0.43912
54.76,0.45331
54.77,0.47011
54.78,0.48206
54.79,0.48206
54.8,0.48206
54.81,0.50633
54.82,0.54181
54.83,0.57392
54.84,0.55151
54.85,0.52874
54.86,0.49849
54.87,0.45854
54.88,0.41896
54.89,0.47758
54.9,0.5601
54.91,0.61723
54.92,0.55898
54.93,0.50073
54.94,0.4787
54.95,0.4858
54.96,0.49289
54.97,0.525
54.98,0.55898
54.99,0.57653
55,0.55525
55.01,0.53396
55.02,0.50185
55.03,0.46489
55.04,0.43091
55.05,0.45667
55.06,0.48206
55.07,0.50111
55.08,0.51119
55.09,0.52127
55.1,0.49924
55.11,0.46937
55.12,0.4563
55.13,0.52463
55.14,0.59296
55.15,0.61387
55.16,0.59558
55.17,0.57691
55.18,0.55189
55.19,0.52612
55.2,0.50708
55.21,0.5026
55.22,0.49849
55.23,0.47907
55.24,0.45182
55.25,0.42717
55.26,0.45555
55.27,0.48393
55.28,0.50372
55.29,0.51081
55.3,0.51791
55.31,0.51156
55.32,0.50148
55.33,0.49401
55.34,0.49812
55.35,0.5026
55.36,0.50073
55.37,0.49364
55.38,0.48654
55.39,0.5026
55.4,0.52127
55.41,0.53957
55.42,0.55824
55.43,0.57653
55.44,0.57429
55.45,0.5616
55.46,0.54778
55.47,0.49625
55.48,0.44509
55.49,0.4253
55.5,0.4507
55.51,0.47646
55.52,0.47646
55.53,0.46937
55.54,0.46302
55.55,0.46003
55.56,0.45742
55.57,0.45667
55.58,0.45816
55.59,0.45966
55.6,0.48281
55.61,0.5082
55.62,0.51716
55.63,0.48169
55.64,0.44584
55.65,0.45928
55.66,0.49924
55.67,0.5377
55.68,0.52202
55.69,0.50633
55.7,0.4914
55.71,0.47721
55.72,0.46302
55.73,0.48505
55.74,0.51753
55.75,0.54778
55.76,0.56346
55.77,0.57915
55.78,0.56944
55.79,0.53695
55.8,0.50409
55.81,0.49326
55.82,0.48468
55.83,0.47758
55.84,0.47459
55.85,0.47198
55.86,0.48281
55.87,0.50111
55.88,0.5194
55.89,0.52799
55.9,0.53658
55.91,0.53172
55.92,0.50633
55.93,0.48057
55.94,0.49401
55.95,0.51978
55.96,0.54106
55.97,0.53546
55.98,0.52948
55.99,0.51455
56,0.49028
56.01,0.46601
56.02,0.46713
56.03,0.47161
56.04,0.48094
56.05,0.50521
56.06,0.52911
56.07,0.52463
56.08,0.50335
56.09,0.48206
56.1,0.50633
56.11,0.5306
56.12,0.54927
56.13,0.55936
56.14,0.56906
56.15,0.58773
56.16,0.60902
56.17,0.6247
56.18,0.60192
56.19,0.57915
56.2,0.55637
56.21,0.53359
56.22,0.51119
56.23,0.497
56.24,0.4843
56.25,0.4731
56.26,0.4675
56.27,0.4619
56.28,0.48878
56.29,0.53583
56.3,0.58288
56.31,0.54031
56.32,0.49774
56.33,0.46489
56.34,0.44958
56.35,0.43389
56.36,0.4436
56.37,0.4619
56.38,0.47795
56.39,0.47497
56.4,0.47235
56.41,0.46787
56.42,0.46227
56.43,0.45667
56.44,0.50521
56.45,0.56234
56.46,0.59035
56.47,0.52948
56.48,0.46825
56.49,0.46563
56.5,0.49999
56.51,0.53396
56.52,0.51903
56.53,0.50335
56.54,0.49065
56.55,0.48356
56.56,0.47646
56.57,0.49662
56.58,0.5265
56.59,0.55301
56.6,0.55151
56.61,0.55002
56.62,0.53284
56.63,0.49849
56.64,0.46451
56.65,0.46713
56.66,0.47534
56.67,0.47534
56.68,0.44696
56.69,0.41858
56.7,0.44211
56.71,0.49886
56.72,0.55562
56.73,0.52612
56.74,0.49476
56.75,0.47198
56.76,0.46489
56.77,0.45779
56.78,0.4675
56.79,0.48281
56.8,0.49177
56.81,0.44061
56.82,0.38946
56.83,0.36743
56.84,0.37714
56.85,0.38722
56.86,0.45406
56.87,0.53098
56.88,0.58176
56.89,0.5433
56.9,0.50484
56.91,0.49961
56.92,0.51679
56.93,0.53396
56.94,0.48019
56.95,0.42493
56.96,0.40663
56.97,0.45779
56.98,0.50895
56.99,0.49662
57,0.45966
57.01,0.42941
57.02,0.46339
57.03,0.49737
57.04,0.52762
57.05,0.55338
57.06,0.57877
57.07,0.5265
57.08,0.45966
57.09,0.40215
57.1,0.37788
57.11,0.35361
57.12,0.36929
57.13,0.41186
57.14,0.45443
57.15,0.46675
57.16,0.47833
57.17,0.48131
57.18,0.46862
57.19,0.45592
57.2,0.45518
57.21,0.45966
57.22,0.46601
57.23,0.49438
57.24,0.52276
57.25,0.52762
57.26,0.50484
57.27,0.48206
57.28,0.44883
57.29,0.41298
57.3,0.38759
57.31,0.40029
57.32,0.41336
57.33,0.43763
57.34,0.47049
57.35,0.50297
57.36,0.49774
57.37,0.49065
57.38,0.47683
57.39,0.44995
57.4,0.42269
57.41,0.42269
57.42,0.43427
57.43,0.44734
57.44,0.48169
57.45,0.51567
57.46,0.5377
57.47,0.54479
57.48,0.55189
57.49,0.48841
57.5,0.41037
57.51,0.36145
57.52,0.43128
57.53,0.50111
57.54,0.51193
57.55,0.47907
57.56,0.44659
57.57,0.45667
57.58,0.46974
57.59,0.47646
57.6,0.47086
57.61,0.46526
57.62,0.47833
57.63,0.49961
57.64,0.51866
57.65,0.50857
57.66,0.49886
57.67,0.48505
57.68,0.46675
57.69,0.44808
57.7,0.44696
57.71,0.44995
57.72,0.45555
57.73,0.47235
57.74,0.48953
57.75,0.48729
57.76,0.47011
57.77,0.45331
57.78,0.47907
57.79,0.50745
57.8,0.52836
57.81,0.53247
57.82,0.53658
57.83,0.49812
57.84,0.43987
57.85,0.38871
57.86,0.44995
57.87,0.51119
57.88,0.54069
57.89,0.52911
57.9,0.51791
57.91,0.50073
57.92,0.48206
57.93,0.47011
57.94,0.4858
57.95,0.50111
57.96,0.52799
57.97,0.56346
57.98,0.59894
57.99,0.5657
58,0.52724
58.01,0.49252
58.02,0.46563
58.03,0.43837
58.04,0.47609
58.05,0.54442
58.06,0.6064
58.07,0.55525
58.08,0.50409
58.09,0.46713
58.1,0.45032
58.11,0.43315
58.12,0.46152
58.13,0.50148
58.14,0.52388
58.15,0.46414
58.16,0.40439
58.17,0.37452
58.18,0.36855
58.19,0.36295
58.2,0.40178
58.21,0.44472
58.22,0.49102
58.23,0.54666
58.24,0.60192
58.25,0.61649
58.26,0.61089
58.27,0.60192
58.28,0.52351
58.29,0.44547
58.3,0.39058
58.31,0.3678
58.32,0.34502
58.33,0.38759
58.34,0.44734
58.35,0.5026
58.36,0.53695
58.37,0.57093
58.38,0.57355
58.39,0.54927
58.4,0.52538
58.41,0.51007
58.42,0.49588
58.43,0.48729
58.44,0.49326
58.45,0.49886
58.46,0.51679
58.47,0.54106
58.48,0.56533
58.49,0.59371
58.5,0.62209
58.51,0.63553
58.52,0.62694
58.53,0.61835
58.54,0.59408
58.55,0.5657
58.56,0.53508
58.57,0.49252
58.58,0.44958
58.59,0.43949
58.6,0.45816
58.61,0.47646
58.62,0.42418
58.63,0.36444
58.64,0.33793
58.65,0.39618
58.66,0.45443
58.67,0.47721
58.68,0.48169
58.69,0.48729
58.7,0.53845
58.71,0.5896
58.72,0.59184
58.73,0.52052
58.74,0.44958
58.75,0.43576
58.76,0.43875
58.77,0.44061
58.78,0.43763
58.79,0.43501
58.8,0.46339
58.81,0.52015
58.82,0.57691
58.83,0.5728
58.84,0.56122
58.85,0.54629
58.86,0.52239
58.87,0.49812
58.88,0.51417
58.89,0.55263
58.9,0.58885
58.91,0.51641
58.92,0.44397
58.93,0.40589
58.94,0.42157
58.95,0.43725
58.96,0.45966
58.97,0.48356
58.98,0.4955
58.99,0.43165
59,0.36743
59.01,0.35697
59.02,0.39693
59.03,0.43651
59.04,0.42456
59.05,0.40589
59.06,0.39618
59.07,0.41037
59.08,0.42456
59.09,0.46675
59.1,0.52538
59.11,0.58213
59.12,0.50671
59.13,0.43128
59.14,0.40514
59.15,0.45779
59.16,0.51044
59.17,0.49289
59.18,0.45331
59.19,0.41634
59.2,0.39917
59.21,0.38236
59.22,0.37452
59.23,0.37602
59.24,0.37751
59.25,0.44136
59.26,0.5138
59.27,0.55712
59.28,0.51455
59.29,0.47161
59.3,0.45966
59.31,0.46526
59.32,0.47086
59.33,0.46526
59.34,0.45966
59.35,0.44136
59.36,0.40327
59.37,0.36481
59.38,0.3902
59.39,0.43725
59.4,0.47497
59.41,0.44808
59.42,0.42082
59.43,0.41149
59.44,0.42008
59.45,0.42867
59.46,0.39991
59.47,0.36593
59.48,0.35473
59.49,0.41448
59.5,0.47422
59.51,0.47422
59.52,0.43725
59.53,0.40029
59.54,0.40551
59.55,0.41112
59.56,0.4197
59.57,0.4324
59.58,0.44509
59.59,0.42642
59.6,0.39655
59.61,0.36967
59.62,0.36519
59.63,0.36108
59.64,0.37079
59.65,0.39469
59.66,0.41896
59.67,0.41746
59.68,0.41186
59.69,0.41074
59.7,0.42493
59.71,0.43912
59.72,0.42904
59.73,0.40365
59.74,0.37788
59.75,0.39581
59.76,0.4141
59.77,0.43053
59.78,0.4436
59.79,0.4563
59.8,0.44397
59.81,0.42269
59.82,0.40141
59.83,0.38012
59.84,0.35884
59.85,0.37079
59.86,0.41933
59.87,0.4675
59.88,0.47721
59.89,0.47982
59.9,0.48281
59.91,0.48542
59.92,0.48841
59.93,0.48094
59.94,0.46675
59.95,0.45256
59.96,0.44248
59.97,0.4324
59.98,0.43464
59.99,0.45854
60,0.48281
60.01,0.46264
60.02,0.42568
60.03,0.39991
60.04,0.47385
60.05,0.54778
60.06,0.56496
60.07,0.51978
60.08,0.47422
60.09,0.45854
60.1,0.44883
60.11,0.44509
60.12,0.46339
60.13,0.48206
60.14,0.47161
60.15,0.44211
60.16,0.41224
60.17,0.42755
60.18,0.44472
60.19,0.4604
60.2,0.4731
60.21,0.4858
60.22,0.49886
60.23,0.51156
60.24,0.52239
60.25,0.5138
60.26,0.50521
60.27,0.47833
60.28,0.42979
60.29,0.38162
60.3,0.40365
60.31,0.43912
60.32,0.4619
60.33,0.438
60.34,0.41373
60.35,0.41298
60.36,0.42829
60.37,0.44397
60.38,0.4324
60.39,0.4197
60.4,0.41298
60.41,0.41858
60.42,0.42456
60.43,0.44211
60.44,0.46489
60.45,0.48468
60.46,0.46899
60.47,0.45331
60.48,0.43875
60.49,0.42605
60.5,0.41336
60.51,0.41709
60.52,0.42418
60.53,0.43016
60.54,0.43165
60.55,0.43277
60.56,0.44173
60.57,0.45592
60.58,0.47011
60.59,0.51679
60.6,0.56533
60.61,0.57504
60.62,0.50559
60.63,0.43576
60.64,0.40775
60.65,0.39805
60.66,0.38796
60.67,0.37788
60.68,0.36817
60.69,0.379
60.7,0.41597
60.71,0.45294
60.72,0.46078
60.73,0.46227
60.74,0.45966
60.75,0.43949
60.76,0.4197
60.77,0.42979
60.78,0.46227
60.79,0.49513
60.8,0.48617
60.81,0.47497
60.82,0.46489
60.83,0.45779
60.84,0.4507
60.85,0.45443
60.86,0.46302
60.87,0.47049
60.88,0.46638
60.89,0.4619
60.9,0.45966
60.91,0.45966
60.92,0.45966
60.93,0.45742
60.94,0.45443
60.95,0.45182
60.96,0.44883
60.97,0.44584
60.98,0.42493
60.99,0.38908
61,0.35361
61.01,0.40701
61.02,0.46675
61.03,0.5026
61.04,0.48393
61.05,0.46563
61.06,0.44622
61.07,0.42605
61.08,0.40701
61.09,0.40141
61.1,0.39581
61.11,0.40888
61.12,0.44734
61.13,0.4858
61.14,0.46825
61.15,0.43688
61.16,0.41634
61.17,0.44622
61.18,0.47609
61.19,0.46974
61.2,0.43427
61.21,0.39879
61.22,0.41336
61.23,0.43165
61.24,0.43352
61.25,0.39655
61.26,0.35959
61.27,0.38012
61.28,0.42867
61.29,0.47198
61.3,0.41336
61.31,0.35511
61.32,0.32635
61.33,0.33756
61.34,0.34913
61.35,0.35361
61.36,0.3566
61.37,0.36556
61.38,0.40551
61.39,0.44509
61.4,0.45406
61.41,0.43688
61.42,0.42008
61.43,0.45107
61.44,0.48692
61.45,0.49289
61.46,0.42755
61.47,0.3622
61.48,0.35548
61.49,0.37788
61.5,0.39991
61.51,0.39693
61.52,0.39394
61.53,0.39991
61.54,0.41858
61.55,0.43688
61.56,0.42867
61.57,0.41298
61.58,0.39991
61.59,0.39991
61.6,0.39991
61.61,0.3917
61.62,0.37602
61.63,0.36033
61.64,0.38348
61.65,0.41037
61.66,0.43987
61.67,0.47534
61.68,0.51081
61.69,0.51268
61.7,0.49737
61.71,0.48206
61.72,0.48356
61.73,0.48505
61.74,0.47198
61.75,0.438
61.76,0.40365
61.77,0.42157
61.78,0.45443
61.79,0.48244
61.8,0.48542
61.81,0.48804
61.82,0.48878
61.83,0.48729
61.84,0.4858
61.85,0.42941
61.86,0.36705
61.87,0.3271
61.88,0.34689
61.89,0.36668
61.9,0.37191
61.91,0.36892
61.92,0.36705
61.93,0.40253
61.94,0.43837
61.95,0.44883
61.96,0.42194
61.97,0.39506
61.98,0.42605
61.99,0.47422
62,0.51679
62.01,0.52388
62.02,0.53098
62.03,0.52164
62.04,0.49774
62.05,0.47347
62.06,0.48878
62.07,0.50857
62.08,0.50895
62.09,0.45667
62.1,0.40402
62.11,0.39133
62.12,0.40141
62.13,0.41112
62.14,0.41112
62.15,0.41112
62.16,0.41485
62.17,0.42493
62.18,0.43501
62.19,0.44061
62.2,0.44472
62.21,0.44472
62.22,0.41597
62.23,0.38759
62.24,0.36145
62.25,0.33718
62.26,0.31328
62.27,0.37452
62.28,0.44696
62.29,0.49886
62.3,0.49177
62.31,0.48468
62.32,0.45704
62.33,0.41709
62.34,0.37751
62.35,0.41037
62.36,0.44323
62.37,0.43875
62.38,0.37303
62.39,0.30768
62.4,0.36033
62.41,0.45107
62.42,0.52874
62.43,0.51455
62.44,0.50036
62.45,0.45816
62.46,0.38871
62.47,0.31889
62.48,0.32897
62.49,0.35025
62.5,0.36519
62.51,0.36108
62.52,0.3566
62.53,0.37975
62.54,0.4197
62.55,0.45966
62.56,0.44397
62.57,0.42829
62.58,0.43389
62.59,0.47497
62.6,0.51641
62.61,0.46451
62.62,0.3805
62.63,0.31328
62.64,0.36855
62.65,0.42418
62.66,0.45704
62.67,0.46713
62.68,0.47683
62.69,0.45256
62.7,0.42269
62.71,0.40477
62.72,0.42456
62.73,0.44435
62.74,0.44435
62.75,0.43165
62.76,0.41858
62.77,0.40178
62.78,0.3846
62.79,0.38498
62.8,0.41634
62.81,0.44771
62.82,0.48206
62.83,0.51753
62.84,0.54479
62.85,0.50335
62.86,0.46227
62.87,0.45742
62.88,0.49177
62.89,0.52575
62.9,0.51828
62.91,0.50409
62.92,0.49289
62.93,0.4914
62.94,0.4899
62.95,0.47907
62.96,0.46227
62.97,0.44509
62.98,0.43651
62.99,0.42792
63,0.41224
63.01,0.38386
63.02,0.35548
63.03,0.3622
63.04,0.38199
63.05,0.40663
63.06,0.47347
63.07,0.54031
63.08,0.55114
63.09,0.49999
63.1,0.44883
63.11,0.51231
63.12,0.59632
63.13,0.65383
63.14,0.61947
63.15,0.58549
63.16,0.5489
63.17,0.51044
63.18,0.47198
63.19,0.46675
63.2,0.46227
63.21,0.4731
63.22,0.51119
63.23,0.54965
63.24,0.52351
63.25,0.47235
63.26,0.4268
63.27,0.43389
63.28,0.44099
63.29,0.43875
63.3,0.42605
63.31,0.41298
63.32,0.44696
63.33,0.48953
63.34,0.52276
63.35,0.52127
63.36,0.52015
63.37,0.5194
63.38,0.5194
63.39,0.5194
63.4,0.50148
63.41,0.48318
63.42,0.48617
63.43,0.53172
63.44,0.57728
63.45,0.5489
63.46,0.49065
63.47,0.44248
63.48,0.50521
63.49,0.56757
63.5,0.61201
63.51,0.63478
63.52,0.65756
63.53,0.59632
63.54,0.51791
63.55,0.46489
63.56,0.50745
63.57,0.55002
63.58,0.56309
63.59,0.5545
63.6,0.54591
63.61,0.53733
63.62,0.52874
63.63,0.51156
63.64,0.47571
63.65,0.44024
63.66,0.46563
63.67,0.51679
63.68,0.56272
63.69,0.54591
63.7,0.52874
63.71,0.51044
63.72,0.49065
63.73,0.47049
63.74,0.47049
63.75,0.47497
63.76,0.48468
63.77,0.51753
63.78,0.55039
63.79,0.56346
63.8,0.56197
63.81,0.56048
63.82,0.48766
63.83,0.41112
63.84,0.38348
63.85,0.4604
63.86,0.53695
63.87,0.55077
63.88,0.5362
63.89,0.52463
63.9,0.5489
63.91,0.57317
63.92,0.57018
63.93,0.53322
63.94,0.49625
63.95,0.51492
63.96,0.54629
63.97,0.57205
63.98,0.57504
63.99,0.57803
64,0.5728
64.01,0.56122
64.02,0.55002
64.03,0.54255
64.04,0.53546
64.05,0.54181
64.06,0.57728
64.07,0.61275
64.08,0.61425
64.09,0.60006
64.1,0.58363
64.11,0.53396
64.12,0.48393
64.13,0.46713
64.14,0.49252
64.15,0.51828
64.16,0.54965
64.17,0.58213
64.18,0.60454
64.19,0.58064
64.2,0.55637
64.21,0.50297
64.22,0.42605
64.23,0.34913
64.24,0.38087
64.25,0.42082
64.26,0.45368
64.27,0.47086
64.28,0.48766
64.29,0.52986
64.3,0.584
64.31,0.63404
64.32,0.61574
64.33,0.59707
64.34,0.5601
64.35,0.49737
64.36,0.43501
64.37,0.4507
64.38,0.48617
64.39,0.51193
64.4,0.49065
64.41,0.46937
64.42,0.46264
64.43,0.46862
64.44,0.47422
64.45,0.47049
64.46,0.46638
64.47,0.47235
64.48,0.50223
64.49,0.5321
64.5,0.53247
64.51,0.51791
64.52,0.50409
64.53,0.49849
64.54,0.49289
64.55,0.50185
64.56,0.53172
64.57,0.5616
64.58,0.54778
64.59,0.52202
64.6,0.50372
64.61,0.52239
64.62,0.54069
64.63,0.54405
64.64,0.53396
64.65,0.52388
64.66,0.53471
64.67,0.54778
64.68,0.5601
64.69,0.5713
64.7,0.58288
64.71,0.61089
64.72,0.64785
64.73,0.68258
64.74,0.65271
64.75,0.62283
64.76,0.60827
64.77,0.61537
64.78,0.62246
64.79,0.58736
64.8,0.54031
64.81,0.50484
64.82,0.53023
64.83,0.556
64.84,0.58213
64.85,0.60939
64.86,0.63628
64.87,0.64412
64.88,0.64972
64.89,0.64486
64.9,0.61201
64.91,0.57915
64.92,0.6079
64.93,0.66914
64.94,0.72813
64.95,0.71843
64.96,0.70834
64.97,0.7173
64.98,0.75427
64.99,0.79124
65,0.8114
65.01,0.82709
65.02,0.84165
65.03,0.85024
65.04,0.85882
65.05,0.90139
65.06,0.97533
65.07,1.04926
65.08,1.05598
65.09,1.05449
65.1,1.06793
65.11,1.12207
65.12,1.17584
65.13,1.23372
65.14,1.29346
65.15,1.35321
65.16,1.42005
65.17,1.48689
65.18,1.58397
65.19,1.72736
65.2,1.87112
65.21,2.00367
65.22,2.13324
65.23,2.29717
65.24,2.67542
65.25,3.05368
65.26,3.67875
65.27,4.53758
65.28,5.3964
65.29,6.7231
65.3,8.10954
65.31,9.49374
65.32,10.87159
65.33,12.24945
65.34,13.66613
65.35,15.10522
65.36,16.54282
65.37,17.84525
65.38,19.14767
65.39,20.49043
65.4,21.89815
65.41,23.30588
65.42,24.71136
65.43,26.1161
65.44,27.56415
65.45,29.29748
65.46,31.03081
65.47,32.56101
65.48,33.89182
65.49,35.22262
65.5,34.7077
65.51,33.93849
65.52,32.43144
65.53,28.74298
65.54,25.05452
65.55,21.81264
65.56,18.83663
65.57,15.86211
65.58,15.24488
65.59,14.62802
65.6,14.37896
65.61,14.74415
65.62,15.10971
65.63,15.43457
65.64,15.74598
65.65,16.03537
65.66,16.16606
65.67,16.29712
65.68,16.00438
65.69,15.28184
65.7,14.55968
65.71,12.46117
65.72,10.15765
65.73,8.01619
65.74,6.37696
65.75,4.73735
65.76,3.70452
65.77,3.04621
65.78,2.3879
65.79,2.11196
65.8,1.83863
65.81,1.59667
65.82,1.40735
65.83,1.21841
65.84,1.15867
65.85,1.14448
65.86,1.12954
65.87,1.11124
65.88,1.09257
65.89,1.06121
65.9,1.01565
65.91,0.9701
65.92,0.91707
65.93,0.8633
65.94,0.82858
65.95,0.85696
65.96,0.88534
65.97,0.8592
65.98,0.79796
65.99,0.7371
66,0.69826
66.01,0.6598
66.02,0.64262
66.03,0.66428
66.04,0.68557
66.05,0.69229
66.06,0.69378
66.07,0.68669
66.08,0.60827
66.09,0.53023
66.1,0.52351
66.11,0.59483
66.12,0.66578
66.13,0.66764
66.14,0.65793
66.15,0.6359
66.16,0.57317
66.17,0.51081
66.18,0.50297
66.19,0.53135
66.2,0.55973
66.21,0.58251
66.22,0.60528
66.23,0.60678
66.24,0.56832
66.25,0.52986
66.26,0.56272
66.27,0.62246
66.28,0.67026
66.29,0.61089
66.3,0.55114
66.31,0.50185
66.32,0.46489
66.33,0.42792
66.34,0.45854
66.35,0.50111
66.36,0.52799
66.37,0.49961
66.38,0.47123
66.39,0.48169
66.4,0.51866
66.41,0.55562
66.42,0.55936
66.43,0.56234
66.44,0.56794
66.45,0.57952
66.46,0.59072
66.47,0.55936
66.48,0.51119
66.49,0.47011
66.5,0.50409
66.51,0.53845
66.52,0.55226
66.53,0.54218
66.54,0.5321
66.55,0.51753
66.56,0.50185
66.57,0.48542
66.58,0.46526
66.59,0.44547
66.6,0.44323
66.61,0.45294
66.62,0.46302
66.63,0.43613
66.64,0.40775
66.65,0.40514
66.66,0.45518
66.67,0.50484
66.68,0.52538
66.69,0.53396
66.7,0.53882
66.71,0.50185
66.72,0.46489
66.73,0.42904
66.74,0.39506
66.75,0.36108
66.76,0.39618
66.77,0.44622
66.78,0.48916
66.79,0.50633
66.8,0.52351
66.81,0.52575
66.82,0.51716
66.83,0.50857
66.84,0.47833
66.85,0.44734
66.86,0.44248
66.87,0.49364
66.88,0.54517
66.89,0.54181
66.9,0.51455
66.91,0.48804
66.92,0.46675
66.93,0.44547
66.94,0.4492
66.95,0.48505
66.96,0.52052
66.97,0.47086
66.98,0.40253
66.99,0.35548
67,0.39506
67.01,0.43501
67.02,0.44584
67.03,0.43427
67.04,0.42306
67.05,0.43688
67.06,0.45256
67.07,0.44584
67.08,0.39058
67.09,0.33494
67.1,0.37564
67.11,0.45966
67.12,0.53583
67.13,0.50335
67.14,0.47049
67.15,0.44547
67.16,0.42979
67.17,0.4141
67.18,0.43539
67.19,0.46526
67.2,0.47833
67.21,0.41709
67.22,0.35585
67.23,0.33942
67.24,0.35772
67.25,0.37639
67.26,0.39879
67.27,0.42157
67.28,0.43576
67.29,0.43165
67.3,0.42755
67.31,0.42979
67.32,0.43576
67.33,0.44024
67.34,0.42755
67.35,0.41485
67.36,0.42941
67.37,0.48057
67.38,0.53172
67.39,0.49737
67.4,0.44173
67.41,0.39394
67.42,0.38124
67.43,0.36817
67.44,0.37265
67.45,0.39133
67.46,0.40962
67.47,0.3861
67.48,0.35921
67.49,0.33531
67.5,0.32001
67.51,0.30432
67.52,0.31926
67.53,0.34913
67.54,0.37714
67.55,0.37004
67.56,0.36295
67.57,0.34988
67.58,0.32859
67.59,0.30731
67.6,0.30843
67.61,0.31552
67.62,0.32747
67.63,0.36295
67.64,0.39842
67.65,0.41485
67.66,0.41485
67.67,0.41485
67.68,0.39805
67.69,0.37938
67.7,0.36295
67.71,0.35174
67.72,0.34017
67.73,0.35249
67.74,0.37676
67.75,0.39954
67.76,0.38647
67.77,0.37378
67.78,0.36967
67.79,0.37826
67.8,0.38684
67.81,0.36855
67.82,0.34316
67.83,0.32934
67.84,0.37938
67.85,0.42904
67.86,0.44771
67.87,0.43912
67.88,0.43053
67.89,0.3846
67.9,0.33494
67.91,0.30768
67.92,0.33718
67.93,0.36705
67.94,0.39693
67.95,0.4268
67.96,0.45592
67.97,0.45742
67.98,0.45891
67.99,0.43912
68,0.38796
68.01,0.33681
68.02,0.33307
68.03,0.34278
68.04,0.35398
68.05,0.37116
68.06,0.38796
68.07,0.41112
68.08,0.43949
68.09,0.46787
68.1,0.44024
68.11,0.40589
68.12,0.38199
68.13,0.38498
68.14,0.38759
68.15,0.38311
68.16,0.37452
68.17,0.36631
68.18,0.36481
68.19,0.36332
68.2,0.35585
68.21,0.33868
68.22,0.32187
68.23,0.33083
68.24,0.34801
68.25,0.36145
68.26,0.35436
68.27,0.34726
68.28,0.34465
68.29,0.34614
68.3,0.34764
68.31,0.35286
68.32,0.35847
68.33,0.35511
68.34,0.32673
68.35,0.29835
68.36,0.31328
68.37,0.35324
68.38,0.39245
68.39,0.38684
68.4,0.38087
68.41,0.39581
68.42,0.44248
68.43,0.48953
68.44,0.46078
68.45,0.40813
68.46,0.36332
68.47,0.36892
68.48,0.3749
68.49,0.37826
68.5,0.37975
68.51,0.38124
68.52,0.40888
68.53,0.44024
68.54,0.44323
68.55,0.36519
68.56,0.28677
68.57,0.28939
68.58,0.33905
68.59,0.38871
68.6,0.36444
68.61,0.34017
68.62,0.3398
68.63,0.37826
68.64,0.41672
68.65,0.40589
68.66,0.37863
68.67,0.35959
68.68,0.39357
68.69,0.42755
68.7,0.45107
68.71,0.46377
68.72,0.47683
68.73,0.41373
68.74,0.3398
68.75,0.29013
68.76,0.3144
68.77,0.33868
68.78,0.32747
68.79,0.29461
68.8,0.26175
68.81,0.27445
68.82,0.28715
68.83,0.28901
68.84,0.27184
68.85,0.25503
68.86,0.28864
68.87,0.3398
68.88,0.38684
68.89,0.40253
68.9,0.41821
68.91,0.4212
68.92,0.41112
68.93,0.40141
68.94,0.38386
68.95,0.36556
68.96,0.35697
68.97,0.38124
68.98,0.40551
68.99,0.41298
69,0.41037
69.01,0.40738
69.02,0.45518
69.03,0.50335
69.04,0.51417
69.05,0.45891
69.06,0.40327
69.07,0.37415
69.08,0.35398
69.09,0.3383
69.1,0.35361
69.11,0.36929
69.12,0.36033
69.13,0.32486
69.14,0.28939
69.15,0.30731
69.16,0.33419
69.17,0.35735
69.18,0.36743
69.19,0.37714
69.2,0.36071
69.21,0.32635
69.22,0.29237
69.23,0.28901
69.24,0.28603
69.25,0.28528
69.26,0.28789
69.27,0.29088
69.28,0.33195
69.29,0.38722
69.3,0.42941
69.31,0.35286
69.32,0.27594
69.33,0.26474
69.34,0.32561
69.35,0.38684
69.36,0.37826
69.37,0.3566
69.38,0.34988
69.39,0.39394
69.4,0.438
69.41,0.438
69.42,0.40813
69.43,0.37826
69.44,0.34577
69.45,0.31291
69.46,0.30992
69.47,0.3622
69.48,0.41485
69.49,0.42867
69.5,0.42717
69.51,0.4253
69.52,0.41522
69.53,0.40514
69.54,0.41186
69.55,0.43725
69.56,0.46302
69.57,0.44696
69.58,0.42269
69.59,0.39245
69.6,0.3398
69.61,0.28715
69.62,0.29237
69.63,0.33793
69.64,0.38311
69.65,0.33158
69.66,0.27632
69.67,0.24308
69.68,0.25466
69.69,0.26586
69.7,0.29125
69.71,0.32262
69.72,0.35286
69.73,0.37303
69.74,0.39282
69.75,0.40253
69.76,0.39954
69.77,0.39655
69.78,0.36407
69.79,0.32598
69.8,0.3047
69.81,0.35025
69.82,0.39581
69.83,0.41821
69.84,0.42381
69.85,0.42941
69.86,0.37676
69.87,0.3215
69.88,0.30619
69.89,0.37303
69.9,0.43987
69.91,0.40477
69.92,0.32673
69.93,0.25839
69.94,0.31403
69.95,0.36929
69.96,0.38199
69.97,0.34204
69.98,0.30246
69.99,0.30358
70,0.31366
70.01,0.32561
70.02,0.3454
70.03,0.36519
70.04,0.36631
70.05,0.35361
70.06,0.34092
70.07,0.33083
70.08,0.32075
70.09,0.31814
70.1,0.33083
70.11,0.34353
70.12,0.32001
70.13,0.28005
70.14,0.24346
70.15,0.24906
70.16,0.25466
70.17,0.26549
70.18,0.28267
70.19,0.29984
70.2,0.30619
70.21,0.31067
70.22,0.31664
70.23,0.33083
70.24,0.34502
70.25,0.33606
70.26,0.30918
70.27,0.28229
70.28,0.30843
70.29,0.3383
70.3,0.35847
70.31,0.35697
70.32,0.35548
70.33,0.34652
70.34,0.33345
70.35,0.32075
70.36,0.30955
70.37,0.29797
70.38,0.29237
70.39,0.29349
70.4,0.29499
70.41,0.30918
70.42,0.32635
70.43,0.33905
70.44,0.33195
70.45,0.32449
70.46,0.34764
70.47,0.39431
70.48,0.44136
70.49,0.3973
70.5,0.34614
70.51,0.31254
70.52,0.31963
70.53,0.32673
70.54,0.33195
70.55,0.33606
70.56,0.34017
70.57,0.34166
70.58,0.34316
70.59,0.33494
70.6,0.31366
70.61,0.29237
70.62,0.29461
70.63,0.3032
70.64,0.31142
70.65,0.31702
70.66,0.32262
70.67,0.31216
70.68,0.28789
70.69,0.26362
70.7,0.28005
70.71,0.29984
70.72,0.31067
70.73,0.29947
70.74,0.28789
70.75,0.30806
70.76,0.34353
70.77,0.37788
70.78,0.38946
70.79,0.40066
70.8,0.40663
70.81,0.40551
70.82,0.40402
70.83,0.37228
70.84,0.33233
70.85,0.30059
70.86,0.31067
70.87,0.32075
70.88,0.32299
70.89,0.31851
70.9,0.3144
70.91,0.3271
70.92,0.34129
70.93,0.35025
70.94,0.34577
70.95,0.34166
70.96,0.33531
70.97,0.32822
70.98,0.32113
70.99,0.31104
71,0.30134
71.01,0.28901
71.02,0.27333
71.03,0.25765
71.04,0.2808
71.05,0.31515
71.06,0.34166
71.07,0.32598
71.08,0.3103
71.09,0.29312
71.1,0.27445
71.11,0.25615
71.12,0.27744
71.13,0.30283
71.14,0.32449
71.15,0.33606
71.16,0.34726
71.17,0.3383
71.18,0.31851
71.19,0.29984
71.2,0.33121
71.21,0.36257
71.22,0.38311
71.23,0.38722
71.24,0.39133
71.25,0.36481
71.26,0.32934
71.27,0.30171
71.28,0.32038
71.29,0.33868
71.3,0.36257
71.31,0.39095
71.32,0.41933
71.33,0.4212
71.34,0.4197
71.35,0.40551
71.36,0.35735
71.37,0.3088
71.38,0.33644
71.39,0.40589
71.4,0.4731
71.41,0.38946
71.42,0.30544
71.43,0.26362
71.44,0.28789
71.45,0.31216
71.46,0.32225
71.47,0.32785
71.48,0.32859
71.49,0.29872
71.5,0.26885
71.51,0.28042
71.52,0.33158
71.53,0.38274
71.54,0.37975
71.55,0.37004
71.56,0.35959
71.57,0.34838
71.58,0.33681
71.59,0.32897
71.6,0.32337
71.61,0.31739
71.62,0.28752
71.63,0.25765
71.64,0.25167
71.65,0.28453
71.66,0.31739
71.67,0.30171
71.68,0.27034
71.69,0.24607
71.7,0.26885
71.71,0.29163
71.72,0.30768
71.73,0.31776
71.74,0.32785
71.75,0.34876
71.76,0.37153
71.77,0.37826
71.78,0.33718
71.79,0.29573
71.8,0.28565
71.81,0.29424
71.82,0.30283
71.83,0.34689
71.84,0.39095
71.85,0.39319
71.86,0.32486
71.87,0.25653
71.88,0.27221
71.89,0.31627
71.9,0.35137
71.91,0.3215
71.92,0.29163
71.93,0.29349
71.94,0.32785
71.95,0.36183
71.96,0.36257
71.97,0.35847
71.98,0.35473
71.99,0.35324
72,0.35174
72.01,0.33121
72.02,0.29835
72.03,0.26586
72.04,0.23151
72.05,0.19753
72.06,0.18819
72.07,0.22255
72.08,0.25653
72.09,0.24122
72.1,0.20873
72.11,0.18819
72.12,0.26362
72.13,0.33868
72.14,0.34988
72.15,0.29312
72.16,0.23599
72.17,0.25765
72.18,0.29163
72.19,0.32785
72.2,0.37041
72.21,0.41298
72.22,0.39506
72.23,0.3383
72.24,0.28154
72.25,0.32635
72.26,0.3734
72.27,0.38796
72.28,0.3439
72.29,0.29984
72.3,0.292
72.31,0.2976
72.32,0.30619
72.33,0.33905
72.34,0.37153
72.35,0.3622
72.36,0.30656
72.37,0.2513
72.38,0.28192
72.39,0.32747
72.4,0.34913
72.41,0.28939
72.42,0.22964
72.43,0.23748
72.44,0.28976
72.45,0.34241
72.46,0.32598
72.47,0.30731
72.48,0.3047
72.49,0.33195
72.5,0.35884
72.51,0.32635
72.52,0.27072
72.53,0.22479
72.54,0.26736
72.55,0.30992
72.56,0.31926
72.57,0.29088
72.58,0.2625
72.59,0.26997
72.6,0.28416
72.61,0.292
72.62,0.27632
72.63,0.26063
72.64,0.25093
72.65,0.24533
72.66,0.23972
72.67,0.23375
72.68,0.22815
72.69,0.24383
72.7,0.30059
72.71,0.35735
72.72,0.35959
72.73,0.3398
72.74,0.32075
72.75,0.31216
72.76,0.30358
72.77,0.30955
72.78,0.33233
72.79,0.35511
72.8,0.33644
72.81,0.30918
72.82,0.28416
72.83,0.26736
72.84,0.25018
72.85,0.25055
72.86,0.26325
72.87,0.27632
72.88,0.26026
72.89,0.24346
72.9,0.23412
72.91,0.24122
72.92,0.24831
72.93,0.24047
72.94,0.22628
72.95,0.21769
72.96,0.27296
72.97,0.32859
72.98,0.34838
72.99,0.32561
73,0.3032
73.01,0.3495
73.02,0.41074
73.03,0.4507
73.04,0.40514
73.05,0.35959
73.06,0.33681
73.07,0.33121
73.08,0.32561
73.09,0.29424
73.1,0.26138
73.11,0.24308
73.12,0.25429
73.13,0.26586
73.14,0.28603
73.15,0.3103
73.16,0.33345
73.17,0.34652
73.18,0.35921
73.19,0.35548
73.2,0.33158
73.21,0.30731
73.22,0.29573
73.23,0.28715
73.24,0.28267
73.25,0.29387
73.26,0.30544
73.27,0.30208
73.28,0.28789
73.29,0.2737
73.3,0.26773
73.31,0.26175
73.32,0.25839
73.33,0.25989
73.34,0.26138
73.35,0.28229
73.36,0.31216
73.37,0.33905
73.38,0.31889
73.39,0.29909
73.4,0.29648
73.41,0.31664
73.42,0.33644
73.43,0.33457
73.44,0.32747
73.45,0.32934
73.46,0.37191
73.47,0.41448
73.48,0.41858
73.49,0.39133
73.5,0.36444
73.51,0.3215
73.52,0.27744
73.53,0.24159
73.54,0.22441
73.55,0.20761
73.56,0.23674
73.57,0.28789
73.58,0.33494
73.59,0.30358
73.6,0.27221
73.61,0.25055
73.62,0.24196
73.63,0.23375
73.64,0.30022
73.65,0.38572
73.66,0.44696
73.67,0.39581
73.68,0.34465
73.69,0.29573
73.7,0.24869
73.71,0.20201
73.72,0.23375
73.73,0.27221
73.74,0.29312
73.75,0.27333
73.76,0.25354
73.77,0.264
73.78,0.28976
73.79,0.31216
73.8,0.26661
73.81,0.22105
73.82,0.20948
73.83,0.24495
73.84,0.28042
73.85,0.27221
73.86,0.25205
73.87,0.23786
73.88,0.25205
73.89,0.26661
73.9,0.27146
73.91,0.26848
73.92,0.26586
73.93,0.24196
73.94,0.21657
73.95,0.20425
73.96,0.22591
73.97,0.24719
73.98,0.25429
73.99,0.25429
74,0.25466
74.01,0.26624
74.02,0.27744
74.03,0.29051
74.04,0.30619
74.05,0.32187
74.06,0.31515
74.07,0.30246
74.08,0.29387
74.09,0.30806
74.1,0.32225
74.11,0.29499
74.12,0.23076
74.13,0.16691
74.14,0.23711
74.15,0.32075
74.16,0.36929
74.17,0.32673
74.18,0.28416
74.19,0.27669
74.2,0.28789
74.21,0.29872
74.22,0.28154
74.23,0.26437
74.24,0.25877
74.25,0.27034
74.26,0.28154
74.27,0.31291
74.28,0.34988
74.29,0.37415
74.3,0.32561
74.31,0.27744
74.32,0.24682
74.33,0.23263
74.34,0.21844
74.35,0.20686
74.36,0.19529
74.37,0.19193
74.38,0.2106
74.39,0.2289
74.4,0.21732
74.41,0.18894
74.42,0.16206
74.43,0.2162
74.44,0.26997
74.45,0.30843
74.46,0.32262
74.47,0.33681
74.48,0.30432
74.49,0.25727
74.5,0.21545
74.51,0.20388
74.52,0.19268
74.53,0.1979
74.54,0.21956
74.55,0.24084
74.56,0.27109
74.57,0.30208
74.58,0.32038
74.59,0.30171
74.6,0.28341
74.61,0.29573
74.62,0.32561
74.63,0.35473
74.64,0.30768
74.65,0.26063
74.66,0.24159
74.67,0.26736
74.68,0.29275
74.69,0.30656
74.7,0.31664
74.71,0.32001
74.72,0.28005
74.73,0.24047
74.74,0.22367
74.75,0.22927
74.76,0.23487
74.77,0.26437
74.78,0.29723
74.79,0.31814
74.8,0.30544
74.81,0.29275
74.82,0.29685
74.83,0.31104
74.84,0.32523
74.85,0.264
74.86,0.20276
74.87,0.18819
74.88,0.25093
74.89,0.31328
74.9,0.34614
74.91,0.36892
74.92,0.38199
74.93,0.32785
74.94,0.27408
74.95,0.24346
74.96,0.23599
74.97,0.2289
74.98,0.25279
74.99,0.28154
75,0.3088
75.01,0.33307
75.02,0.35697
75.03,0.34689
75.04,0.31552
75.05,0.28416
75.06,0.27146
75.07,0.25877
75.08,0.24383
75.09,0.22516
75.1,0.20686
75.11,0.22516
75.12,0.25653
75.13,0.28341
75.14,0.27632
75.15,0.26922
75.16,0.24458
75.17,0.20201
75.18,0.15944
75.19,0.18297
75.2,0.21695
75.21,0.24346
75.22,0.24495
75.23,0.24645
75.24,0.2625
75.25,0.28789
75.26,0.31366
75.27,0.32113
75.28,0.32822
75.29,0.32449
75.3,0.30171
75.31,0.27893
75.32,0.26661
75.33,0.25802
75.34,0.2513
75.35,0.2569
75.36,0.2625
75.37,0.29013
75.38,0.34129
75.39,0.39245
75.4,0.35623
75.41,0.30507
75.42,0.26213
75.43,0.24794
75.44,0.23375
75.45,0.2274
75.46,0.22591
75.47,0.22441
75.48,0.26175
75.49,0.30022
75.5,0.3159
75.51,0.28864
75.52,0.26175
75.53,0.25653
75.54,0.25914
75.55,0.26213
75.56,0.26661
75.57,0.27072
75.58,0.2737
75.59,0.2752
75.6,0.27632
75.61,0.27781
75.62,0.2793
75.63,0.28154
75.64,0.28565
75.65,0.28976
75.66,0.28491
75.67,0.27333
75.68,0.26213
75.69,0.28379
75.7,0.30656
75.71,0.32673
75.72,0.34241
75.73,0.35809
75.74,0.35137
75.75,0.33569
75.76,0.31851
75.77,0.28416
75.78,0.25018
75.79,0.22778
75.8,0.21956
75.81,0.21097
75.82,0.22628
75.83,0.24607
75.84,0.25951
75.85,0.24981
75.86,0.23972
75.87,0.233
75.88,0.2289
75.89,0.22441
75.9,0.27781
75.91,0.33307
75.92,0.35585
75.93,0.31328
75.94,0.27034
75.95,0.23972
75.96,0.21433
75.97,0.19305
75.98,0.22143
75.99,0.25018
76,0.2681
76.01,0.2737
76.02,0.2793
76.03,0.27557
76.04,0.26997
76.05,0.26624
76.06,0.27072
76.07,0.27482
76.08,0.27594
76.09,0.27445
76.1,0.27296
76.11,0.27445
76.12,0.27557
76.13,0.264
76.14,0.22591
76.15,0.18745
76.16,0.18297
76.17,0.19268
76.18,0.20649
76.19,0.26922
76.2,0.33158
76.21,0.34913
76.22,0.31067
76.23,0.27221
76.24,0.28416
76.25,0.30694
76.26,0.32075
76.27,0.29797
76.28,0.2752
76.29,0.27781
76.3,0.29909
76.31,0.32038
76.32,0.31216
76.33,0.30208
76.34,0.28976
76.35,0.27296
76.36,0.25578
76.37,0.25541
76.38,0.2625
76.39,0.2696
76.4,0.27818
76.41,0.28677
76.42,0.29611
76.43,0.30582
76.44,0.3159
76.45,0.30843
76.46,0.29723
76.47,0.28341
76.48,0.25914
76.49,0.23487
76.5,0.22031
76.51,0.21321
76.52,0.20612
76.53,0.20836
76.54,0.21135
76.55,0.21583
76.56,0.22441
76.57,0.233
76.58,0.24645
76.59,0.26175
76.6,0.27594
76.61,0.26624
76.62,0.25615
76.63,0.25242
76.64,0.25653
76.65,0.26101
76.66,0.22964
76.67,0.19006
76.68,0.17102
76.69,0.24943
76.7,0.32747
76.71,0.34988
76.72,0.3271
76.73,0.30432
76.74,0.29088
76.75,0.27818
76.76,0.26848
76.77,0.26549
76.78,0.2625
76.79,0.28304
76.8,0.31403
76.81,0.34278
76.82,0.32001
76.83,0.29723
76.84,0.28042
76.85,0.27221
76.86,0.26362
76.87,0.26624
76.88,0.27184
76.89,0.27781
76.9,0.28341
76.91,0.28901
76.92,0.29088
76.93,0.28939
76.94,0.28789
76.95,0.2696
76.96,0.24981
76.97,0.23524
76.98,0.23375
76.99,0.23226
77,0.22255
77.01,0.20836
77.02,0.19492
77.03,0.20649
77.04,0.21769
77.05,0.2386
77.06,0.27258
77.07,0.30694
77.08,0.28939
77.09,0.25802
77.1,0.23338
77.11,0.24196
77.12,0.25018
77.13,0.27408
77.14,0.31104
77.15,0.34801
77.16,0.32299
77.17,0.29163
77.18,0.27706
77.19,0.30395
77.2,0.33083
77.21,0.32038
77.22,0.29051
77.23,0.26175
77.24,0.26624
77.25,0.27034
77.26,0.27408
77.27,0.27706
77.28,0.27968
77.29,0.29723
77.3,0.31851
77.31,0.33121
77.32,0.29723
77.33,0.26287
77.34,0.25055
77.35,0.25765
77.36,0.26474
77.37,0.27184
77.38,0.27893
77.39,0.28341
77.4,0.28042
77.41,0.27781
77.42,0.26362
77.43,0.24383
77.44,0.22479
77.45,0.24757
77.46,0.27034
77.47,0.27744
77.48,0.26026
77.49,0.24308
77.5,0.24906
77.51,0.26213
77.52,0.27072
77.53,0.25653
77.54,0.24234
77.55,0.24084
77.56,0.25055
77.57,0.26063
77.58,0.29088
77.59,0.32374
77.6,0.33419
77.61,0.28453
77.62,0.23487
77.63,0.24234
77.64,0.28229
77.65,0.3215
77.66,0.32299
77.67,0.32449
77.68,0.30918
77.69,0.2681
77.7,0.22665
77.71,0.24084
77.72,0.27221
77.73,0.29685
77.74,0.28117
77.75,0.26586
77.76,0.25653
77.77,0.25354
77.78,0.25093
77.79,0.25055
77.8,0.25055
77.81,0.25727
77.82,0.28267
77.83,0.30843
77.84,0.33307
77.85,0.35735
77.86,0.38124
77.87,0.35697
77.88,0.3327
77.89,0.32747
77.9,0.35324
77.91,0.37863
77.92,0.37004
77.93,0.34988
77.94,0.3327
77.95,0.3327
77.96,0.3327
77.97,0.32486
77.98,0.30918
77.99,0.29349
78,0.29536
78.01,0.29947
78.02,0.30507
78.03,0.31366
78.04,0.32187
78.05,0.33494
78.06,0.35062
78.07,0.36631
78.08,0.30544
78.09,0.2442
78.1,0.21097
78.11,0.22516
78.12,0.23935
78.13,0.23972
78.14,0.23562
78.15,0.23375
78.16,0.25093
78.17,0.2681
78.18,0.29349
78.19,0.32747
78.2,0.36183
78.21,0.35398
78.22,0.3398
78.23,0.33345
78.24,0.35174
78.25,0.37041
78.26,0.37415
78.27,0.36817
78.28,0.36257
78.29,0.39058
78.3,0.41933
78.31,0.42755
78.32,0.40029
78.33,0.3734
78.34,0.39133
78.35,0.42568
78.36,0.45966
78.37,0.49214
78.38,0.525
78.39,0.5306
78.4,0.5082
78.41,0.48542
78.42,0.48094
78.43,0.47945
78.44,0.49102
78.45,0.54479
78.46,0.59894
78.47,0.64972
78.48,0.69789
78.49,0.74643
78.5,0.88123
78.51,1.01752
78.52,1.17136
78.53,1.3562
78.54,1.54103
78.55,1.82631
78.56,2.14893
78.57,2.48872
78.58,2.97639
78.59,3.46405
78.6,3.85761
78.61,4.14775
78.62,4.43788
78.63,4.71569
78.64,4.99164
78.65,5.29671
78.66,5.70185
78.67,6.10699
78.68,6.44342
78.69,6.73356
78.7,7.02369
78.71,7.14206
78.72,7.25594
78.73,7.32876
78.74,7.32465
78.75,7.32017
78.76,6.83139
78.77,6.15478
78.78,5.47519
78.79,4.76984
78.8,4.06448
78.81,3.57234
78.82,3.32216
78.83,3.07198
78.84,3.0014
78.85,2.96444
78.86,2.96742
78.87,3.11529
78.88,3.26316
78.89,3.39086
78.9,3.50438
78.91,3.61826
78.92,3.71161
78.93,3.80384
78.94,3.85015
78.95,3.80608
78.96,3.76202
78.97,3.74746
78.98,3.74447
78.99,3.7034
79,3.25382
79.01,2.80462
79.02,2.36662
79.03,1.94132
79.04,1.51601
79.05,1.26509
79.06,1.04926
79.07,0.85285
79.08,0.73187
79.09,0.61089
79.1,0.5952
79.11,0.65495
79.12,0.71469
79.13,0.62769
79.14,0.53396
79.15,0.4604
79.16,0.42941
79.17,0.39805
79.18,0.38684
79.19,0.38386
79.2,0.38162
79.21,0.38572
79.22,0.3902
79.23,0.40477
79.24,0.43165
79.25,0.45854
79.26,0.39543
79.27,0.31291
79.28,0.25503
79.29,0.29611
79.3,0.33756
79.31,0.32337
79.32,0.26773
79.33,0.21247
79.34,0.23636
79.35,0.26474
79.36,0.28453
79.37,0.28603
79.38,0.28752
79.39,0.29872
79.4,0.3144
79.41,0.32598
79.42,0.28192
79.43,0.23786
79.44,0.23076
79.45,0.27072
79.46,0.3103
79.47,0.30731
79.48,0.29461
79.49,0.27781
79.5,0.24533
79.51,0.21247
79.52,0.21209
79.53,0.23599
79.54,0.26026
79.55,0.25914
79.56,0.25615
79.57,0.26922
79.58,0.31776
79.59,0.36593
79.6,0.33457
79.61,0.26624
79.62,0.20201
79.63,0.20052
79.64,0.19902
79.65,0.22964
79.66,0.30246
79.67,0.3749
79.68,0.34054
79.69,0.2808
79.7,0.23898
79.71,0.27744
79.72,0.31552
79.73,0.29536
79.74,0.22852
79.75,0.16168
79.76,0.18371
79.77,0.21209
79.78,0.24906
79.79,0.30619
79.8,0.36295
79.81,0.32449
79.82,0.24047
79.83,0.1628
79.84,0.19828
79.85,0.23375
79.86,0.24234
79.87,0.21359
79.88,0.18521
79.89,0.22964
79.9,0.29237
79.91,0.33382
79.92,0.27557
79.93,0.21732
79.94,0.20388
79.95,0.22815
79.96,0.25242
79.97,0.22927
79.98,0.20238
79.99,0.18969
80,0.21097
