19.998977026,237
20.01922551118,236
20.03947399636,243
20.05972248154,255
20.07997096672,229
20.1002194519,196
20.12046793708,223
20.14071642226,244
20.16096490744,220
20.18121339262,249
20.2014618778,211
20.22171036298,221
20.24195884816,209
20.26220733334,213
20.28245581852,215
20.3027043037,210
20.32295278888,230
20.34320127406,214
20.36344975924,206
20.38369824442,195
20.4039467296,202
20.42419521478,183
20.44444369996,205
20.46469218514,201
20.48494067032,208
20.5051891555,192
20.52543764068,201
20.54568612586,216
20.56593461104,197
20.58618309622,232
20.6064315814,198
20.62668006658,212
20.64692855176,222
20.66717703694,215
20.68742552212,219
20.7076740073,199
20.72792249248,189
20.74817097766,213
20.76841946284,228
20.78866794802,230
20.8089164332,252
20.82916491838,197
20.84941340356,197
20.86966188874,199
20.88991037392,203
20.9101588591,198
20.93040734428,186
20.95065582946,183
20.97090431464,213
20.99115279982,185
21.011401285,203
21.03164977018,196
21.05189825536,202
21.07214674054,193
21.09239522572,190
21.1126437109,196
21.13289219608,174
21.15314068126,215
21.17338916644,214
21.19363765162,198
21.2138861368,178
21.23413462198,188
21.25438310716,202
21.27463159234,207
21.29488007752,183
21.3151285627,199
21.33537704788,212
21.35562553306,205
21.37587401824,207
21.39612250342,196
21.4163709886,212
21.43661947378,226
21.45686795896,219
21.47711644414,208
21.49736492932,204
21.5176134145,195
21.53786189968,180
21.55811038486,220
21.57835887004,219
21.59860735522,212
21.6188558404,185
21.63910432558,206
21.65935281076,210
21.67960129594,195
21.69984978112,180
21.7200982663,204
21.74034675148,186
21.76059523666,185
21.78084372184,187
21.80109220702,207
21.8213406922,237
21.84158917738,187
21.86183766256,222
21.88208614774,201
21.90233463292,210
21.9225831181,198
21.94283160328,197
21.96308008846,192
21.98332857364,211
22.00357705882,194
22.023825544,198
22.04407402918,185
22.06432251436,201
22.08457099954,194
22.10481948472,163
22.1250679699,214
22.14531645508,209
22.16556494026,211
22.18581342544,205
22.20606191062,181
22.2263103958,203
22.24655888098,216
22.26680736616,203
22.28705585134,207
22.30730433652,210
22.3275528217,181
22.34780130688,218
22.36804979206,194
22.38829827724,197
22.40854676242,198
22.4287952476,191
22.44904373278,179
22.46929221796,176
22.48954070314,192
22.50978918832,191
22.5300376735,196
22.55028615868,186
22.57053464386,171
22.59078312904,208
22.61103161422,193
22.6312800994,183
22.65152858458,174
22.67177706976,221
22.69202555494,194
22.71227404012,175
22.7325225253,184
22.75277101048,199
22.77301949566,192
22.79326798084,152
22.81351646602,200
22.8337649512,169
22.85401343638,198
22.87426192156,204
22.89451040674,181
22.91475889192,234
22.9350073771,199
22.95525586228,163
22.97550434746,208
22.99575283264,197
23.01600131782,183
23.036249803,211
23.05649828818,231
23.07674677336,176
23.09699525854,208
23.11724374372,202
23.1374922289,213
23.15774071408,185
23.17798919926,180
23.19823768444,195
23.21848616962,218
23.2387346548,204
23.25898313998,196
23.27923162516,197
23.29948011034,196
23.31972859552,215
23.3399770807,177
23.36022556588,230
23.38047405106,205
23.40072253624,202
23.42097102142,211
23.4412195066,197
23.46146799178,214
23.48171647696,205
23.50196496214,197
23.52221344732,192
23.5424619325,190
23.56271041768,182
23.58295890286,180
23.60320738804,220
23.62345587322,184
23.6437043584,210
23.66395284358,181
23.68420132876,192
23.70444981394,177
23.72469829912,174
23.7449467843,166
23.76519526948,183
23.78544375466,193
23.80569223984,177
23.82594072502,185
23.8461892102,191
23.86643769538,187
23.88668618056,196
23.90693466574,210
23.92718315092,191
23.9474316361,214
23.96768012128,190
23.98792860646,174
24.00817709164,202
24.02842557682,178
24.048674062,190
24.06892254718,189
24.08917103236,195
24.10941951754,189
24.12966800272,217
24.1499164879,196
24.17016497308,193
24.19041345826,175
24.21066194344,191
24.23091042862,197
24.2511589138,193
24.27140739898,194
24.29165588416,195
24.31190436934,196
24.33215285452,213
24.3524013397,217
24.37264982488,203
24.39289831006,197
24.41314679524,211
24.43339528042,195
24.4536437656,219
24.47389225078,190
24.49414073596,193
24.51438922114,194
24.53463770632,208
24.5548861915,196
24.57513467668,197
24.59538316186,210
24.61563164704,183
24.63588013222,174
24.6561286174,230
24.67637710258,179
24.69662558776,185
24.71687407294,214
24.73712255812,188
24.7573710433,199
24.77761952848,182
24.79786801366,190
24.81811649884,201
24.83836498402,206
24.8586134692,182
24.87886195438,198
24.89911043956,193
24.91935892474,193
24.93960740992,187
24.9598558951,169
24.98010438028,189
25.00035286546,153
25.02060135064,191
25.04084983582,190
25.061098321,186
25.08134680618,201
25.10159529136,182
25.12184377654,186
25.14209226172,168
25.1623407469,179
25.18258923208,190
25.20283771726,212
25.22308620244,215
25.24333468762,190
25.2635831728,206
25.28383165798,178
25.30408014316,173
25.32432862834,208
25.34457711352,211
25.3648255987,178
25.38507408388,163
25.40532256906,191
25.42557105424,211
25.44581953942,184
25.4660680246,180
25.48631650978,209
25.50656499496,196
25.52681348014,209
25.54706196532,180
25.5673104505,213
25.58755893568,233
25.60780742086,196
25.62805590604,193
25.64830439122,175
25.6685528764,207
25.68880136158,190
25.70904984676,228
25.72929833194,206
25.74954681712,214
25.7697953023,198
25.79004378748,217
25.81029227266,216
25.83054075784,200
25.85078924302,188
25.8710377282,196
25.89128621338,189
25.91153469856,197
25.93178318374,187
25.95203166892,206
25.9722801541,192
25.99252863928,200
26.01277712446,195
26.03302560964,184
26.05327409482,187
26.07352258,191
26.09377106518,197
26.11401955036,172
26.13426803554,208
26.15451652072,174
26.1747650059,196
26.19501349108,188
26.21526197626,188
26.23551046144,204
26.25575894662,211
26.2760074318,207
26.29625591698,207
26.31650440216,204
26.33675288734,202
26.35700137252,209
26.3772498577,208
26.39749834288,199
26.41774682806,221
26.43799531324,232
26.45824379842,191
26.4784922836,210
26.49874076878,202
26.51898925396,188
26.53923773914,207
26.55948622432,225
26.5797347095,217
26.59998319468,201
26.62023167986,176
26.64048016504,206
26.66072865022,187
26.6809771354,214
26.70122562058,198
26.72147410576,183
26.74172259094,215
26.76197107612,217
26.7822195613,203
26.80246804648,214
26.82271653166,200
26.84296501684,199
26.86321350202,198
26.8834619872,199
26.90371047238,181
26.92395895756,235
26.94420744274,209
26.96445592792,199
26.9847044131,206
27.00495289828,191
27.02520138346,230
27.04544986864,202
27.06569835382,180
27.085946839,205
27.10619532418,221
27.12644380936,204
27.14669229454,237
27.16694077972,224
27.1871892649,207
27.20743775008,241
27.22768623526,218
27.24793472044,240
27.26818320562,242
27.2884316908,213
27.30868017598,251
27.32892866116,241
27.34917714634,239
27.36942563152,250
27.3896741167,213
27.40992260188,251
27.43017108706,249
27.45041957224,277
27.47066805742,223
27.4909165426,254
27.51116502778,256
27.53141351296,274
27.55166199814,262
27.57191048332,278
27.5921589685,314
27.61240745368,274
27.63265593886,290
27.65290442404,289
27.67315290922,312
27.6934013944,326
27.71364987958,323
27.73389836476,301
27.75414684994,314
27.77439533512,348
27.7946438203,332
27.81489230548,298
27.83514079066,348
27.85538927584,377
27.87563776102,367
27.8958862462,402
27.91613473138,416
27.93638321656,412
27.95663170174,470
27.97688018692,474
27.9971286721,461
28.01737715728,530
28.03762564246,541
28.05787412764,551
28.07812261282,594
28.098371098,614
28.11861958318,683
28.13886806836,704
28.15911655354,799
28.17936503872,834
28.1996135239,934
28.21986200908,1053
28.24011049426,1128
28.26035897944,1333
28.28060746462,1444
28.3008559498,1608
28.32110443498,1766
28.34135292016,1984
28.36160140534,2185
28.38184989052,2502
28.4020983757,2814
28.42234686088,2940
28.44259534606,3260
28.46284383124,3491
28.48309231642,3670
28.5033408016,3639
28.52358928678,3692
28.54383777196,3492
28.56408625714,3437
28.58433474232,3222
28.6045832275,3038
28.62483171268,2730
28.64508019786,2465
28.66532868304,2221
28.68557716822,1979
28.7058256534,1864
28.72607413858,1505
28.74632262376,1401
28.76657110894,1189
28.78681959412,1072
28.8070680793,1023
28.82731656448,860
28.84756504966,767
28.86781353484,721
28.88806202002,700
28.9083105052,605
28.92855899038,586
28.94880747556,534
28.96905596074,498
28.98930444592,475
29.0095529311,444
29.02980141628,424
29.05004990146,417
29.07029838664,401
29.09054687182,414
29.110795357,414
29.13104384218,340
29.15129232736,364
29.17154081254,339
29.19178929772,306
29.2120377829,331
29.23228626808,274
29.25253475326,326
29.27278323844,292
29.29303172362,305
29.3132802088,299
29.33352869398,271
29.35377717916,315
29.37402566434,277
29.39427414952,306
29.4145226347,300
29.43477111988,285
29.45501960506,311
29.47526809024,244
29.49551657542,266
29.5157650606,252
29.53601354578,254
29.55626203096,255
29.57651051614,238
29.59675900132,269
29.6170074865,245
29.63725597168,247
29.65750445686,287
29.67775294204,251
29.69800142722,227
29.7182499124,257
29.73849839758,241
29.75874688276,262
29.77899536794,228
29.79924385312,262
29.8194923383,256
29.83974082348,264
29.85998930866,260
29.88023779384,265
29.90048627902,262
29.9207347642,247
29.94098324938,223
29.96123173456,242
29.98148021974,223
30.00172870492,244
30.0219771901,231
30.04222567528,206
30.06247416046,227
30.08272264564,224
30.10297113082,219
30.123219616,235
30.14346810118,224
30.16371658636,225
30.18396507154,226
30.20421355672,226
30.2244620419,206
30.24471052708,225
30.26495901226,218
30.28520749744,227
30.30545598262,184
30.3257044678,207
30.34595295298,188
30.36620143816,230
30.38644992334,206
30.40669840852,231
30.4269468937,219
30.44719537888,211
30.46744386406,202
30.48769234924,235
30.50794083442,239
30.5281893196,216
30.54843780478,216
30.56868628996,242
30.58893477514,186
30.60918326032,230
30.6294317455,214
30.64968023068,222
30.66992871586,228
30.69017720104,230
30.71042568622,229
30.7306741714,227
30.75092265658,205
30.77117114176,228
30.79141962694,229
30.81166811212,230
30.8319165973,218
30.85216508248,227
30.87241356766,208
30.89266205284,232
30.91291053802,223
30.9331590232,220
30.95340750838,232
30.97365599356,224
30.99390447874,239
31.01415296392,233
31.0344014491,193
31.05464993428,216
31.07489841946,172
31.09514690464,216
31.11539538982,228
31.135643875,213
31.15589236018,206
31.17614084536,207
31.19638933054,198
31.21663781572,210
31.2368863009,222
31.25713478608,199
31.27738327126,204
31.29763175644,219
31.31788024162,190
31.3381287268,221
31.35837721198,223
31.37862569716,192
31.39887418234,190
31.41912266752,208
31.4393711527,214
31.45961963788,222
31.47986812306,230
31.50011660824,192
31.52036509342,212
31.5406135786,224
31.56086206378,205
31.58111054896,210
31.60135903414,224
31.62160751932,179
31.6418560045,232
31.66210448968,190
31.68235297486,186
31.70260146004,199
31.72284994522,194
31.7430984304,220
31.76334691558,230
31.78359540076,247
31.80384388594,194
31.82409237112,211
31.8443408563,177
31.86458934148,191
31.88483782666,221
31.90508631184,216
31.92533479702,229
31.9455832822,219
31.96583176738,232
31.98608025256,232
32.00632873774,246
32.02657722292,206
32.0468257081,202
32.06707419328,220
32.08732267846,236
32.10757116364,214
32.12781964882,196
32.148068134,214
32.16831661918,214
32.18856510436,249
32.20881358954,234
32.22906207472,236
32.2493105599,263
32.26955904508,267
32.28980753026,236
32.31005601544,282
32.33030450062,219
32.3505529858,240
32.37080147098,262
32.39104995616,239
32.41129844134,250
32.43154692652,279
32.4517954117,262
32.47204389688,259
32.49229238206,261
32.51254086724,294
32.53278935242,274
32.5530378376,302
32.57328632278,295
32.59353480796,301
32.61378329314,349
32.63403177832,370
32.6542802635,371
32.67452874868,353
32.69477723386,402
32.71502571904,374
32.73527420422,472
32.7555226894,464
32.77577117458,509
32.79601965976,554
32.81626814494,591
32.83651663012,660
32.8567651153,682
32.87701360048,793
32.89726208566,813
32.91751057084,907
32.93775905602,936
32.9580075412,1071
32.97825602638,1068
32.99850451156,1111
33.01875299674,1204
33.03900148192,1156
33.0592499671,1170
33.07949845228,1133
33.09974693746,1131
33.11999542264,1034
33.14024390782,975
33.160492393,894
33.18074087818,854
33.20098936336,721
33.22123784854,728
33.24148633372,623
33.2617348189,542
33.28198330408,491
33.30223178926,459
33.32248027444,431
33.34272875962,417
33.3629772448,376
33.38322572998,401
33.40347421516,319
33.42372270034,332
33.44397118552,338
33.4642196707,306
33.48446815588,286
33.50471664106,295
33.52496512624,256
33.54521361142,257
33.5654620966,252
33.58571058178,266
33.60595906696,278
33.62620755214,245
33.64645603732,246
33.6667045225,264
33.68695300768,230
33.70720149286,219
33.72744997804,234
33.74769846322,212
33.7679469484,219
33.78819543358,229
33.80844391876,200
33.82869240394,212
33.84894088912,230
33.8691893743,212
33.88943785948,190
33.90968634466,204
33.92993482984,192
33.95018331502,207
33.9704318002,200
33.99068028538,211
34.01092877056,229
34.03117725574,197
34.05142574092,210
34.0716742261,225
34.09192271128,208
34.11217119646,211
34.13241968164,204
34.15266816682,203
34.172916652,214
34.19316513718,229
34.21341362236,227
34.23366210754,184
34.25391059272,213
34.2741590779,220
34.29440756308,205
34.31465604826,199
34.33490453344,200
34.35515301862,187
34.3754015038,175
34.39564998898,201
34.41589847416,200
34.43614695934,208
34.45639544452,190
34.4766439297,193
34.49689241488,199
34.51714090006,192
34.53738938524,195
34.55763787042,189
34.5778863556,193
34.59813484078,214
34.61838332596,185
34.63863181114,207
34.65888029632,185
34.6791287815,213
34.69937726668,220
34.71962575186,217
34.73987423704,202
34.76012272222,188
34.7803712074,214
34.80061969258,229
34.82086817776,222
34.84111666294,212
34.86136514812,212
34.8816136333,186
34.90186211848,192
34.92211060366,204
34.94235908884,193
34.96260757402,208
34.9828560592,186
35.00310454438,206
35.02335302956,234
35.04360151474,197
35.06384999992,210
35.0840984851,226
35.10434697028,216
35.12459545546,216
35.14484394064,209
35.16509242582,199
35.185340911,233
35.20558939618,177
35.22583788136,214
35.24608636654,216
35.26633485172,171
35.2865833369,190
35.30683182208,216
35.32708030726,205
35.34732879244,213
35.36757727762,197
35.3878257628,201
35.40807424798,192
35.42832273316,182
35.44857121834,181
35.46881970352,178
35.4890681887,182
35.50931667388,180
35.52956515906,226
35.54981364424,179
35.57006212942,196
35.5903106146,208
35.61055909978,185
35.63080758496,176
35.65105607014,185
35.67130455532,167
35.6915530405,196
35.71180152568,188
35.73205001086,189
35.75229849604,219
35.77254698122,192
35.7927954664,198
35.81304395158,199
35.83329243676,199
35.85354092194,182
35.87378940712,168
35.8940378923,177
35.91428637748,196
35.93453486266,170
35.95478334784,184
35.97503183302,196
35.9952803182,197
36.01552880338,188
36.03577728856,187
36.05602577374,173
36.07627425892,197
36.0965227441,183
36.11677122928,189
36.13701971446,185
36.15726819964,205
36.17751668482,196
36.19776517,198
36.21801365518,163
36.23826214036,183
36.25851062554,200
36.27875911072,178
36.2990075959,182
36.31925608108,165
36.33950456626,182
36.35975305144,175
36.38000153662,187
36.4002500218,181
36.42049850698,191
36.44074699216,170
36.46099547734,195
36.48124396252,174
36.5014924477,192
36.52174093288,174
36.54198941806,190
36.56223790324,194
36.58248638842,213
36.6027348736,160
36.62298335878,200
36.64323184396,178
36.66348032914,166
36.68372881432,179
36.7039772995,214
36.72422578468,181
36.74447426986,177
36.76472275504,175
36.78497124022,194
36.8052197254,176
36.82546821058,189
36.84571669576,196
36.86596518094,191
36.88621366612,181
36.9064621513,183
36.92671063648,199
36.94695912166,185
36.96720760684,167
36.98745609202,188
37.0077045772,171
37.02795306238,203
37.04820154756,176
37.06845003274,175
37.08869851792,169
37.1089470031,187
37.12919548828,180
37.14944397346,203
37.16969245864,177
37.18994094382,179
37.210189429,188
37.23043791418,188
37.25068639936,197
37.27093488454,185
37.29118336972,227
37.3114318549,186
37.33168034008,209
37.35192882526,181
37.37217731044,204
37.39242579562,198
37.4126742808,173
37.43292276598,185
37.45317125116,170
37.47341973634,194
37.49366822152,158
37.5139167067,184
37.53416519188,180
37.55441367706,180
37.57466216224,187
37.59491064742,184
37.6151591326,202
37.63540761778,176
37.65565610296,184
37.67590458814,179
37.69615307332,178
37.7164015585,194
37.73665004368,178
37.75689852886,196
37.77714701404,200
37.79739549922,208
37.8176439844,184
37.83789246958,186
37.85814095476,169
37.87838943994,189
37.89863792512,197
37.9188864103,204
37.93913489548,175
37.95938338066,166
37.97963186584,179
37.99988035102,195
38.0201288362,190
38.04037732138,186
38.06062580656,193
38.08087429174,185
38.10112277692,192
38.1213712621,172
38.14161974728,173
38.16186823246,202
38.18211671764,179
38.20236520282,198
38.222613688,179
38.24286217318,185
38.26311065836,181
38.28335914354,192
38.30360762872,177
38.3238561139,182
38.34410459908,203
38.36435308426,199
38.38460156944,193
38.40485005462,177
38.4250985398,209
38.44534702498,213
38.46559551016,195
38.48584399534,199
38.50609248052,203
38.5263409657,195
38.54658945088,156
38.56683793606,186
38.58708642124,175
38.60733490642,174
38.6275833916,202
38.64783187678,175
38.66808036196,184
38.68832884714,192
38.70857733232,183
38.7288258175,192
38.74907430268,204
38.76932278786,205
38.78957127304,179
38.80981975822,205
38.8300682434,198
38.85031672858,191
38.87056521376,191
38.89081369894,191
38.91106218412,201
38.9313106693,202
38.95155915448,169
38.97180763966,184
38.99205612484,203
39.01230461002,173
39.0325530952,177
39.05280158038,228
39.07305006556,199
39.09329855074,228
39.11354703592,187
39.1337955211,167
39.15404400628,198
39.17429249146,192
39.19454097664,186
39.21478946182,177
39.235037947,189
39.25528643218,185
39.27553491736,170
39.29578340254,208
39.31603188772,185
39.3362803729,180
39.35652885808,172
39.37677734326,183
39.39702582844,151
39.41727431362,182
39.4375227988,192
39.45777128398,186
39.47801976916,170
39.49826825434,182
39.51851673952,181
39.5387652247,188
39.55901370988,202
39.57926219506,204
39.59951068024,187
39.61975916542,176
39.6400076506,155
39.66025613578,165
39.68050462096,165
39.70075310614,177
39.72100159132,186
39.7412500765,168
39.76149856168,190
39.78174704686,188
39.80199553204,171
39.82224401722,186
39.8424925024,188
39.86274098758,188
39.88298947276,195
39.90323795794,189
39.92348644312,180
39.9437349283,181
39.96398341348,187
39.98423189866,204
40.00448038384,176
40.02472886902,174
40.0449773542,173
40.06522583938,177
40.08547432456,222
40.10572280974,173
40.12597129492,160
40.1462197801,187
40.16646826528,187
40.18671675046,198
40.20696523564,160
40.22721372082,186
40.247462206,165
40.26771069118,175
40.28795917636,178
40.30820766154,178
40.32845614672,173
40.3487046319,177
40.36895311708,206
40.38920160226,187
40.40945008744,181
40.42969857262,201
40.4499470578,189
40.47019554298,172
40.49044402816,177
40.51069251334,183
40.53094099852,185
40.5511894837,213
40.57143796888,189
40.59168645406,168
40.61193493924,187
40.63218342442,165
40.6524319096,168
40.67268039478,182
40.69292887996,183
40.71317736514,196
40.73342585032,179
40.7536743355,191
40.77392282068,175
40.79417130586,177
40.81441979104,181
40.83466827622,188
40.8549167614,188
40.87516524658,204
40.89541373176,164
40.91566221694,163
40.93591070212,186
40.9561591873,172
40.97640767248,210
40.99665615766,194
41.01690464284,193
41.03715312802,192
41.0574016132,191
41.07765009838,195
41.09789858356,171
41.11814706874,180
41.13839555392,183
41.1586440391,192
41.17889252428,159
41.19914100946,193
41.21938949464,190
41.23963797982,186
41.259886465,169
41.28013495018,191
41.30038343536,182
41.32063192054,193
41.34088040572,174
41.3611288909,189
41.38137737608,199
41.40162586126,176
41.42187434644,201
41.44212283162,196
41.4623713168,196
41.48261980198,205
41.50286828716,188
41.52311677234,189
41.54336525752,195
41.5636137427,187
41.58386222788,168
41.60411071306,176
41.62435919824,208
41.64460768342,167
41.6648561686,220
41.68510465378,163
41.70535313896,189
41.72560162414,193
41.74585010932,201
41.7660985945,203
41.78634707968,183
41.80659556486,214
41.82684405004,176
41.84709253522,182
41.8673410204,174
41.88758950558,178
41.90783799076,185
41.92808647594,185
41.94833496112,184
41.9685834463,199
41.98883193148,181
42.00908041666,208
42.02932890184,204
42.04957738702,204
42.0698258722,205
42.09007435738,192
42.11032284256,213
42.13057132774,193
42.15081981292,208
42.1710682981,186
42.19131678328,196
42.21156526846,185
42.23181375364,214
42.25206223882,185
42.272310724,191
42.29255920918,207
42.31280769436,187
42.33305617954,192
42.35330466472,232
42.3735531499,189
42.39380163508,203
42.41405012026,196
42.43429860544,233
42.45454709062,240
42.4747955758,223
42.49504406098,210
42.51529254616,207
42.53554103134,241
42.55578951652,200
42.5760380017,230
42.59628648688,213
42.61653497206,217
42.63678345724,221
42.65703194242,195
42.6772804276,231
42.69752891278,218
42.71777739796,201
42.73802588314,210
42.75827436832,207
42.7785228535,204
42.79877133868,193
42.81901982386,182
42.83926830904,183
42.85951679422,171
42.8797652794,184
42.90001376458,230
42.92026224976,191
42.94051073494,200
42.96075922012,181
42.9810077053,184
43.00125619048,220
43.02150467566,188
43.04175316084,196
43.06200164602,175
43.0822501312,195
43.10249861638,184
43.12274710156,184
43.14299558674,192
43.16324407192,203
43.1834925571,196
43.20374104228,193
43.22398952746,177
43.24423801264,183
43.26448649782,176
43.284734983,209
43.30498346818,160
43.32523195336,198
43.34548043854,184
43.36572892372,176
43.3859774089,168
43.40622589408,198
43.42647437926,183
43.44672286444,184
43.46697134962,171
43.4872198348,183
43.50746831998,187
43.52771680516,183
43.54796529034,199
43.56821377552,207
43.5884622607,205
43.60871074588,201
43.62895923106,195
43.64920771624,190
43.66945620142,176
43.6897046866,169
43.70995317178,181
43.73020165696,205
43.75045014214,194
43.77069862732,190
43.7909471125,204
43.81119559768,184
43.83144408286,190
43.85169256804,193
43.87194105322,212
43.8921895384,190
43.91243802358,189
43.93268650876,205
43.95293499394,178
43.97318347912,185
43.9934319643,190
44.01368044948,172
44.03392893466,203
44.05417741984,195
44.07442590502,216
44.0946743902,180
44.11492287538,180
44.13517136056,168
44.15541984574,176
44.17566833092,175
44.1959168161,194
44.21616530128,194
44.23641378646,180
44.25666227164,217
44.27691075682,205
44.297159242,178
44.31740772718,175
44.33765621236,196
44.35790469754,181
44.37815318272,193
44.3984016679,187
44.41865015308,198
44.43889863826,173
44.45914712344,194
44.47939560862,195
44.4996440938,176
44.51989257898,187
44.54014106416,173
44.56038954934,199
44.58063803452,184
44.6008865197,174
44.62113500488,198
44.64138349006,206
44.66163197524,165
44.68188046042,186
44.7021289456,183
44.72237743078,204
44.74262591596,194
44.76287440114,170
44.78312288632,200
44.8033713715,177
44.82361985668,184
44.84386834186,193
44.86411682704,191
44.88436531222,204
44.9046137974,203
44.92486228258,197
44.94511076776,179
44.96535925294,168
44.98560773812,190
45.0058562233,192
45.02610470848,204
45.04635319366,184
45.06660167884,186
45.08685016402,184
45.1070986492,187
45.12734713438,189
45.14759561956,180
45.16784410474,169
45.18809258992,186
45.2083410751,155
45.22858956028,205
45.24883804546,162
45.26908653064,184
45.28933501582,206
45.309583501,184
45.32983198618,176
45.35008047136,180
45.37032895654,179
45.39057744172,186
45.4108259269,182
45.43107441208,201
45.45132289726,206
45.47157138244,203
45.49181986762,190
45.5120683528,204
45.53231683798,177
45.55256532316,204
45.57281380834,180
45.59306229352,196
45.6133107787,184
45.63355926388,193
45.65380774906,201
45.67405623424,199
45.69430471942,216
45.7145532046,192
45.73480168978,221
45.75505017496,198
45.77529866014,212
45.79554714532,189
45.8157956305,220
45.83604411568,196
45.85629260086,193
45.87654108604,210
45.89678957122,199
45.9170380564,206
45.93728654158,185
45.95753502676,203
45.97778351194,192
45.99803199712,192
46.0182804823,222
46.03852896748,227
46.05877745266,215
46.07902593784,224
46.09927442302,198
46.1195229082,219
46.13977139338,217
46.16001987856,235
46.18026836374,208
46.20051684892,235
46.2207653341,214
46.24101381928,213
46.26126230446,214
46.28151078964,231
46.30175927482,232
46.32200776,230
46.34225624518,257
46.36250473036,209
46.38275321554,223
46.40300170072,204
46.4232501859,196
46.44349867108,220
46.46374715626,221
46.48399564144,216
46.50424412662,252
46.5244926118,238
46.54474109698,249
46.56498958216,234
46.58523806734,227
46.60548655252,238
46.6257350377,252
46.64598352288,240
46.66623200806,271
46.68648049324,262
46.70672897842,256
46.7269774636,295
46.74722594878,302
46.76747443396,297
46.78772291914,296
46.80797140432,284
46.8282198895,328
46.84846837468,349
46.86871685986,341
46.88896534504,360
46.90921383022,352
46.9294623154,390
46.94971080058,393
46.96995928576,441
46.99020777094,468
47.01045625612,491
47.0307047413,515
47.05095322648,523
47.07120171166,537
47.09145019684,627
47.11169868202,660
47.1319471672,715
47.15219565238,785
47.17244413756,868
47.19269262274,923
47.21294110792,1032
47.2331895931,1048
47.25343807828,1174
47.27368656346,1202
47.29393504864,1325
47.31418353382,1445
47.334432019,1519
47.35468050418,1527
47.37492898936,1621
47.39517747454,1566
47.41542595972,1614
47.4356744449,1588
47.45592293008,1487
47.47617141526,1569
47.49641990044,1481
47.51666838562,1431
47.5369168708,1371
47.55716535598,1256
47.57741384116,1134
47.59766232634,1121
47.61791081152,938
47.6381592967,928
47.65840778188,782
47.67865626706,737
47.69890475224,670
47.71915323742,641
47.7394017226,633
47.75965020778,543
47.77989869296,543
47.80014717814,471
47.82039566332,474
47.8406441485,430
47.86089263368,404
47.88114111886,375
47.90138960404,403
47.92163808922,380
47.9418865744,374
47.96213505958,335
47.98238354476,330
48.00263202994,277
48.02288051512,304
48.0431290003,288
48.06337748548,282
48.08362597066,279
48.10387445584,293
48.12412294102,262
48.1443714262,263
48.16461991138,273
48.18486839656,254
48.20511688174,255
48.22536536692,252
48.2456138521,249
48.26586233728,253
48.28611082246,214
48.30635930764,237
48.32660779282,245
48.346856278,243
48.36710476318,251
48.38735324836,227
48.40760173354,235
48.42785021872,262
48.4480987039,208
48.46834718908,201
48.48859567426,223
48.50884415944,219
48.52909264462,222
48.5493411298,227
48.56958961498,206
48.58983810016,219
48.61008658534,189
48.63033507052,221
48.6505835557,226
48.67083204088,204
48.69108052606,228
48.71132901124,228
48.73157749642,232
48.7518259816,208
48.77207446678,202
48.79232295196,205
48.81257143714,217
48.83281992232,198
48.8530684075,200
48.87331689268,233
48.89356537786,216
48.91381386304,191
48.93406234822,201
48.9543108334,194
48.97455931858,206
48.99480780376,209
49.01505628894,206
49.03530477412,178
49.0555532593,195
49.07580174448,176
49.09605022966,214
49.11629871484,205
49.13654720002,185
49.1567956852,223
49.17704417038,214
49.19729265556,204
49.21754114074,211
49.23778962592,186
49.2580381111,220
49.27828659628,182
49.29853508146,198
49.31878356664,221
49.33903205182,194
49.359280537,201
49.37952902218,206
49.39977750736,194
49.42002599254,203
49.44027447772,217
49.4605229629,188
49.48077144808,163
49.50101993326,193
49.52126841844,184
49.54151690362,203
49.5617653888,172
49.58201387398,197
49.60226235916,215
49.62251084434,201
49.64275932952,210
49.6630078147,194
49.68325629988,190
49.70350478506,163
49.72375327024,183
49.74400175542,189
49.7642502406,187
49.78449872578,166
49.80474721096,183
49.82499569614,188
49.84524418132,175
49.8654926665,191
49.88574115168,205
49.90598963686,217
49.92623812204,192
49.94648660722,184
49.9667350924,169
49.98698357758,193
50.00723206276,158
50.02748054794,187
50.04772903312,184
50.0679775183,176
50.08822600348,191
50.10847448866,190
50.12872297384,166
50.14897145902,198
50.1692199442,203
50.18946842938,164
50.20971691456,169
50.22996539974,206
50.25021388492,186
50.2704623701,174
50.29071085528,173
50.31095934046,209
50.33120782564,193
50.35145631082,202
50.371704796,225
50.39195328118,201
50.41220176636,186
50.43245025154,198
50.45269873672,175
50.4729472219,176
50.49319570708,193
50.51344419226,211
50.53369267744,187
50.55394116262,183
50.5741896478,187
50.59443813298,183
50.61468661816,177
50.63493510334,206
50.65518358852,198
50.6754320737,178
50.69568055888,191
50.71592904406,216
50.73617752924,167
50.75642601442,204
50.7766744996,179
50.79692298478,189
50.81717146996,190
50.83741995514,200
50.85766844032,192
50.8779169255,203
50.89816541068,191
50.91841389586,207
50.93866238104,208
50.95891086622,194
50.9791593514,223
50.99940783658,207
51.01965632176,184
51.03990480694,171
51.06015329212,182
51.0804017773,191
51.10065026248,211
51.12089874766,188
51.14114723284,176
51.16139571802,177
51.1816442032,180
51.20189268838,203
51.22214117356,163
51.24238965874,182
51.26263814392,166
51.2828866291,213
51.30313511428,211
51.32338359946,232
51.34363208464,187
51.36388056982,183
51.384129055,183
51.40437754018,193
51.42462602536,191
51.44487451054,186
51.46512299572,201
51.4853714809,190
51.50561996608,184
51.52586845126,195
51.54611693644,189
51.56636542162,177
51.5866139068,198
51.60686239198,191
51.62711087716,187
51.64735936234,175
51.66760784752,198
51.6878563327,190
51.70810481788,184
51.72835330306,192
51.74860178824,204
51.76885027342,179
51.7890987586,193
51.80934724378,196
51.82959572896,194
51.84984421414,210
51.87009269932,179
51.8903411845,213
51.91058966968,198
51.93083815486,189
51.95108664004,185
51.97133512522,181
51.9915836104,219
52.01183209558,200
52.03208058076,187
52.05232906594,199
52.07257755112,201
52.0928260363,192
52.11307452148,175
52.13332300666,181
52.15357149184,196
52.17381997702,200
52.1940684622,212
52.21431694738,216
52.23456543256,199
52.25481391774,188
52.27506240292,190
52.2953108881,200
52.31555937328,184
52.33580785846,190
52.35605634364,174
52.37630482882,173
52.396553314,217
52.41680179918,172
52.43705028436,181
52.45729876954,169
52.47754725472,191
52.4977957399,201
52.51804422508,179
52.53829271026,217
52.55854119544,190
52.57878968062,176
52.5990381658,187
52.61928665098,187
52.63953513616,209
52.65978362134,215
52.68003210652,196
52.7002805917,184
52.72052907688,206
52.74077756206,201
52.76102604724,172
52.78127453242,173
52.8015230176,209
52.82177150278,179
52.84201998796,202
52.86226847314,189
52.88251695832,189
52.9027654435,193
52.92301392868,180
52.94326241386,174
52.96351089904,176
52.98375938422,186
53.0040078694,166
53.02425635458,203
53.04450483976,181
53.06475332494,169
53.08500181012,184
53.1052502953,182
53.12549878048,166
53.14574726566,189
53.16599575084,196
53.18624423602,188
53.2064927212,170
53.22674120638,187
53.24698969156,175
53.26723817674,196
53.28748666192,174
53.3077351471,192
53.32798363228,203
53.34823211746,206
53.36848060264,166
53.38872908782,182
53.408977573,205
53.42922605818,205
53.44947454336,198
53.46972302854,175
53.48997151372,188
53.5102199989,167
53.53046848408,198
53.55071696926,199
53.57096545444,225
53.59121393962,183
53.6114624248,181
53.63171090998,202
53.65195939516,213
53.67220788034,171
53.69245636552,197
53.7127048507,178
53.73295333588,208
53.75320182106,195
53.77345030624,189
53.79369879142,226
53.8139472766,203
53.83419576178,196
53.85444424696,212
53.87469273214,178
53.89494121732,174
53.9151897025,203
53.93543818768,202
53.95568667286,193
53.97593515804,199
53.99618364322,159
54.0164321284,205
54.03668061358,199
54.05692909876,180
54.07717758394,191
54.09742606912,190
54.1176745543,199
54.13792303948,180
54.15817152466,205
54.17842000984,200
54.19866849502,179
54.2189169802,196
54.23916546538,215
54.25941395056,177
54.27966243574,179
54.29991092092,225
54.3201594061,185
54.34040789128,193
54.36065637646,187
54.38090486164,206
54.40115334682,190
54.421401832,203
54.44165031718,202
54.46189880236,198
54.48214728754,184
54.50239577272,225
54.5226442579,202
54.54289274308,203
54.56314122826,196
54.58338971344,187
54.60363819862,197
54.6238866838,232
54.64413516898,206
54.66438365416,213
54.68463213934,224
54.70488062452,217
54.7251291097,216
54.74537759488,200
54.76562608006,221
54.78587456524,191
54.80612305042,219
54.8263715356,195
54.84662002078,211
54.86686850596,227
54.88711699114,195
54.90736547632,211
54.9276139615,216
54.94786244668,214
54.96811093186,234
54.98835941704,225
55.00860790222,201
55.0288563874,243
55.04910487258,229
55.06935335776,222
55.08960184294,230
55.10985032812,205
55.1300988133,245
55.15034729848,220
55.17059578366,229
55.19084426884,231
55.21109275402,203
55.2313412392,231
55.25158972438,218
55.27183820956,220
55.29208669474,235
55.31233517992,206
55.3325836651,231
55.35283215028,227
55.37308063546,252
55.39332912064,244
55.41357760582,223
55.433826091,242
55.45407457618,246
55.47432306136,238
55.49457154654,262
55.51482003172,268
55.5350685169,298
55.55531700208,276
55.57556548726,259
55.59581397244,274
55.61606245762,287
55.6363109428,325
55.65655942798,284
55.67680791316,319
55.69705639834,346
55.71730488352,349
55.7375533687,376
55.75780185388,370
55.77805033906,378
55.79829882424,399
55.81854730942,428
55.8387957946,450
55.85904427978,475
55.87929276496,519
55.89954125014,521
55.91978973532,567
55.9400382205,573
55.96028670568,654
55.98053519086,677
56.00078367604,697
56.02103216122,780
56.0412806464,781
56.06152913158,825
56.08177761676,943
56.10202610194,950
56.12227458712,1045
56.1425230723,1061
56.16277155748,1127
56.18302004266,1174
56.20326852784,1206
56.22351701302,1245
56.2437654982,1288
56.26401398338,1239
56.28426246856,1254
56.30451095374,1193
56.32475943892,1115
56.3450079241,1083
56.36525640928,1094
56.38550489446,989
56.40575337964,968
56.42600186482,840
56.44625035,857
56.46649883518,843
56.48674732036,784
56.50699580554,716
56.52724429072,676
56.5474927759,654
56.56774126108,561
56.58798974626,563
56.60823823144,422
56.62848671662,453
56.6487352018,455
56.66898368698,411
56.68923217216,395
56.70948065734,402
56.72972914252,341
56.7499776277,314
56.77022611288,290
56.79047459806,319
56.81072308324,321
56.83097156842,291
56.8512200536,285
56.87146853878,298
56.89171702396,302
56.91196550914,252
56.93221399432,265
56.9524624795,291
56.97271096468,290
56.99295944986,254
57.01320793504,273
57.03345642022,267
57.0537049054,251
57.07395339058,255
57.09420187576,224
57.11445036094,242
57.13469884612,254
57.1549473313,266
57.17519581648,229
57.19544430166,245
57.21569278684,250
57.23594127202,228
57.2561897572,226
57.27643824238,251
57.29668672756,208
57.31693521274,229
57.33718369792,229
57.3574321831,231
57.37768066828,235
57.39792915346,232
57.41817763864,203
57.43842612382,211
57.458674609,234
57.47892309418,244
57.49917157936,229
57.51942006454,234
57.53966854972,223
57.5599170349,232
57.58016552008,222
57.60041400526,217
57.62066249044,219
57.64091097562,272
57.6611594608,198
57.68140794598,219
57.70165643116,242
57.72190491634,226
57.74215340152,198
57.7624018867,238
57.78265037188,234
57.80289885706,202
57.82314734224,200
57.84339582742,212
57.8636443126,194
57.88389279778,224
57.90414128296,202
57.92438976814,199
57.94463825332,212
57.9648867385,225
57.98513522368,194
58.00538370886,206
58.02563219404,227
58.04588067922,209
58.0661291644,187
58.08637764958,233
58.10662613476,209
58.12687461994,226
58.14712310512,201
58.1673715903,221
58.18762007548,205
58.20786856066,195
58.22811704584,216
58.24836553102,196
58.2686140162,220
58.28886250138,210
58.30911098656,203
58.32935947174,194
58.34960795692,224
58.3698564421,228
58.39010492728,208
58.41035341246,209
58.43060189764,214
58.45085038282,207
58.471098868,239
58.49134735318,226
58.51159583836,225
58.53184432354,254
58.55209280872,220
58.5723412939,255
58.59258977908,255
58.61283826426,265
58.63308674944,248
58.65333523462,287
58.6735837198,275
58.69383220498,244
58.71408069016,314
58.73432917534,297
58.75457766052,311
58.7748261457,284
58.79507463088,301
58.81532311606,317
58.83557160124,369
58.85582008642,343
58.8760685716,338
58.89631705678,366
58.91656554196,366
58.93681402714,336
58.95706251232,379
58.9773109975,375
58.99755948268,404
59.01780796786,395
59.03805645304,375
59.05830493822,376
59.0785534234,359
59.09880190858,385
59.11905039376,334
59.13929887894,355
59.15954736412,330
59.1797958493,285
59.20004433448,317
59.22029281966,299
59.24054130484,307
59.26078979002,283
59.2810382752,273
59.30128676038,276
59.32153524556,242
59.34178373074,232
59.36203221592,253
59.3822807011,250
59.40252918628,234
59.42277767146,233
59.44302615664,238
59.46327464182,242
59.483523127,229
59.50377161218,222
59.52402009736,205
59.54426858254,217
59.56451706772,225
59.5847655529,210
59.60501403808,200
59.62526252326,205
59.64551100844,209
59.66575949362,207
59.6860079788,184
59.70625646398,183
59.72650494916,196
59.74675343434,214
59.76700191952,197
59.7872504047,202
59.80749888988,205
59.82774737506,200
59.84799586024,208
59.86824434542,210
59.8884928306,194
59.90874131578,181
59.92898980096,207
59.94923828614,192
59.96948677132,208
59.9897352565,195
60.00998374168,194
60.03023222686,205
60.05048071204,186
60.07072919722,189
60.0909776824,191
60.11122616758,211
60.13147465276,204
60.15172313794,213
60.17197162312,188
60.1922201083,213
60.21246859348,188
60.23271707866,178
60.25296556384,196
60.27321404902,200
60.2934625342,206
60.31371101938,196
60.33395950456,192
60.35420798974,181
60.37445647492,207
60.3947049601,210
60.41495344528,185
60.43520193046,201
60.45545041564,227
60.47569890082,208
60.495947386,189
60.51619587118,189
60.53644435636,199
60.55669284154,208
60.57694132672,194
60.5971898119,183
60.61743829708,213
60.63768678226,180
60.65793526744,188
60.67818375262,201
60.6984322378,188
60.71868072298,167
60.73892920816,173
60.75917769334,171
60.77942617852,194
60.7996746637,194
60.81992314888,194
60.84017163406,201
60.86042011924,193
60.88066860442,189
60.9009170896,189
60.92116557478,166
60.94141405996,198
60.96166254514,193
60.98191103032,157
61.0021595155,198
61.02240800068,164
61.04265648586,203
61.06290497104,170
61.08315345622,197
61.1034019414,187
61.12365042658,208
61.14389891176,201
61.16414739694,184
61.18439588212,207
61.2046443673,203
61.22489285248,191
61.24514133766,175
61.26538982284,180
61.28563830802,195
61.3058867932,216
61.32613527838,165
61.34638376356,203
61.36663224874,192
61.38688073392,203
61.4071292191,165
61.42737770428,172
61.44762618946,175
61.46787467464,207
61.48812315982,169
61.508371645,188
61.52862013018,215
61.54886861536,184
61.56911710054,203
61.58936558572,192
61.6096140709,180
61.62986255608,181
61.65011104126,192
61.67035952644,211
61.69060801162,191
61.7108564968,168
61.73110498198,190
61.75135346716,172
61.77160195234,180
61.79185043752,219
61.8120989227,196
61.83234740788,186
61.85259589306,182
61.87284437824,191
61.89309286342,206
61.9133413486,185
61.93358983378,168
61.95383831896,187
61.97408680414,188
61.99433528932,213
62.0145837745,192
62.03483225968,176
62.05508074486,179
62.07532923004,189
62.09557771522,190
62.1158262004,187
62.13607468558,188
62.15632317076,187
62.17657165594,199
62.19682014112,189
62.2170686263,192
62.23731711148,185
62.25756559666,191
62.27781408184,204
62.29806256702,180
62.3183110522,180
62.33855953738,179
62.35880802256,206
62.37905650774,173
62.39930499292,193
62.4195534781,209
62.43980196328,187
62.46005044846,186
62.48029893364,184
62.50054741882,162
62.520795904,196
62.54104438918,195
62.56129287436,196
62.58154135954,174
62.60178984472,203
62.6220383299,196
62.64228681508,189
62.66253530026,200
62.68278378544,188
62.70303227062,173
62.7232807558,187
62.74352924098,189
62.76377772616,175
62.78402621134,208
62.80427469652,187
62.8245231817,201
62.84477166688,219
62.86502015206,190
62.88526863724,186
62.90551712242,196
62.9257656076,180
62.94601409278,173
62.96626257796,159
62.98651106314,189
63.00675954832,195
63.0270080335,196
63.04725651868,182
63.06750500386,201
63.08775348904,187
63.10800197422,198
63.1282504594,193
63.14849894458,176
63.16874742976,190
63.18899591494,218
63.20924440012,196
63.2294928853,169
63.24974137048,194
63.26998985566,182
63.29023834084,186
63.31048682602,169
63.3307353112,189
63.35098379638,184
63.37123228156,158
63.39148076674,184
63.41172925192,192
63.4319777371,183
63.45222622228,175
63.47247470746,183
63.49272319264,203
63.51297167782,185
63.533220163,184
63.55346864818,177
63.57371713336,194
63.59396561854,174
63.61421410372,179
63.6344625889,171
63.65471107408,183
63.67495955926,198
63.69520804444,199
63.71545652962,191
63.7357050148,175
63.75595349998,167
63.77620198516,178
63.79645047034,203
63.81669895552,185
63.8369474407,182
63.85719592588,192
63.87744441106,183
63.89769289624,195
63.91794138142,188
63.9381898666,166
63.95843835178,179
63.97868683696,179
63.99893532214,181
64.01918380732,202
64.0394322925,158
64.05968077768,188
64.07992926286,182
64.10017774804,190
64.12042623322,210
64.1406747184,196
64.16092320358,183
64.18117168876,217
64.20142017394,179
64.22166865912,205
64.2419171443,212
64.26216562948,192
64.28241411466,199
64.30266259984,180
64.32291108502,174
64.3431595702,177
64.36340805538,169
64.38365654056,192
64.40390502574,201
64.42415351092,184
64.4444019961,184
64.46465048128,180
64.48489896646,187
64.50514745164,181
64.52539593682,175
64.545644422,180
64.56589290718,194
64.58614139236,188
64.60638987754,177
64.62663836272,187
64.6468868479,198
64.66713533308,178
64.68738381826,191
64.70763230344,202
64.72788078862,197
64.7481292738,202
64.76837775898,193
64.78862624416,183
64.80887472934,189
64.82912321452,181
64.8493716997,182
64.86962018488,179
64.88986867006,168
64.91011715524,178
64.93036564042,176
64.9506141256,186
64.97086261078,195
64.99111109596,187
65.01135958114,174
65.03160806632,187
65.0518565515,151
65.07210503668,199
65.09235352186,191
65.11260200704,178
65.13285049222,197
65.1530989774,183
65.17334746258,185
65.19359594776,171
65.21384443294,172
65.23409291812,214
65.2543414033,193
65.27458988848,146
65.29483837366,197
65.31508685884,212
65.33533534402,199
65.3555838292,187
65.37583231438,180
65.39608079956,177
65.41632928474,184
65.43657776992,186
65.4568262551,192
65.47707474028,195
65.49732322546,173
65.51757171064,172
65.53782019582,186
65.558068681,152
65.57831716618,204
65.59856565136,188
65.61881413654,179
65.63906262172,195
65.6593111069,199
65.67955959208,180
65.69980807726,172
65.72005656244,187
65.74030504762,186
65.7605535328,202
65.78080201798,219
65.80105050316,186
65.82129898834,160
65.84154747352,196
65.8617959587,180
65.88204444388,168
65.90229292906,193
65.92254141424,211
65.94278989942,202
65.9630383846,166
65.98328686978,175
66.00353535496,185
66.02378384014,178
66.04403232532,176
66.0642808105,183
66.08452929568,180
66.10477778086,172
66.12502626604,175
66.14527475122,199
66.1655232364,193
66.18577172158,193
66.20602020676,173
66.22626869194,204
66.24651717712,161
66.2667656623,184
66.28701414748,189
66.30726263266,163
66.32751111784,177
66.34775960302,163
66.3680080882,168
66.38825657338,178
66.40850505856,186
66.42875354374,167
66.44900202892,185
66.4692505141,170
66.48949899928,188
66.50974748446,196
66.52999596964,186
66.55024445482,196
66.57049294,203
66.59074142518,188
66.61098991036,184
66.63123839554,167
66.65148688072,197
66.6717353659,183
66.69198385108,168
66.71223233626,205
66.73248082144,166
66.75272930662,200
66.7729777918,168
66.79322627698,187
66.81347476216,181
66.83372324734,178
66.85397173252,157
66.8742202177,164
66.89446870288,179
66.91471718806,182
66.93496567324,197
66.95521415842,176
66.9754626436,214
66.99571112878,177
67.01595961396,177
67.03620809914,177
67.05645658432,183
67.0767050695,189
67.09695355468,184
67.11720203986,174
67.13745052504,162
67.15769901022,194
67.1779474954,159
67.19819598058,175
67.21844446576,163
67.23869295094,190
67.25894143612,192
67.2791899213,199
67.29943840648,194
67.31968689166,180
67.33993537684,189
67.36018386202,155
67.3804323472,167
67.40068083238,173
67.42092931756,202
67.44117780274,177
67.46142628792,210
67.4816747731,206
67.50192325828,182
67.52217174346,197
67.54242022864,182
67.56266871382,190
67.582917199,194
67.60316568418,197
67.62341416936,206
67.64366265454,199
67.66391113972,183
67.6841596249,189
67.70440811008,179
67.72465659526,186
67.74490508044,225
67.76515356562,178
67.7854020508,169
67.80565053598,199
67.82589902116,175
67.84614750634,175
67.86639599152,181
67.8866444767,173
67.90689296188,184
67.92714144706,188
67.94738993224,201
67.96763841742,195
67.9878869026,193
68.00813538778,187
68.02838387296,173
68.04863235814,197
68.06888084332,196
68.0891293285,190
68.10937781368,204
68.12962629886,177
68.14987478404,206
68.17012326922,191
68.1903717544,184
68.21062023958,185
68.23086872476,190
68.25111720994,202
68.27136569512,207
68.2916141803,196
68.31186266548,201
68.33211115066,197
68.35235963584,194
68.37260812102,213
68.3928566062,191
68.41310509138,198
68.43335357656,188
68.45360206174,169
68.47385054692,208
68.4940990321,197
68.51434751728,186
68.53459600246,188
68.55484448764,196
68.57509297282,186
68.595341458,213
68.61558994318,194
68.63583842836,227
68.65608691354,192
68.67633539872,207
68.6965838839,210
68.71683236908,196
68.73708085426,214
68.75732933944,232
68.77757782462,233
68.7978263098,205
68.81807479498,218
68.83832328016,219
68.85857176534,224
68.87882025052,247
68.8990687357,221
68.91931722088,272
68.93956570606,224
68.95981419124,256
68.98006267642,246
69.0003111616,256
69.02055964678,285
69.04080813196,280
69.06105661714,253
69.08130510232,258
69.1015535875,309
69.12180207268,284
69.14205055786,316
69.16229904304,321
69.18254752822,330
69.2027960134,334
69.22304449858,364
69.24329298376,333
69.26354146894,344
69.28378995412,325
69.3040384393,377
69.32428692448,333
69.34453540966,348
69.36478389484,320
69.38503238002,293
69.4052808652,346
69.42552935038,332
69.44577783556,325
69.46602632074,309
69.48627480592,285
69.5065232911,271
69.52677177628,285
69.54702026146,256
69.56726874664,285
69.58751723182,264
69.607765717,261
69.62801420218,237
69.64826268736,258
69.66851117254,245
69.68875965772,222
69.7090081429,247
69.72925662808,237
69.74950511326,204
69.76975359844,229
69.79000208362,210
69.8102505688,200
69.83049905398,221
69.85074753916,217
69.87099602434,194
69.89124450952,192
69.9114929947,196
69.93174147988,203
69.95198996506,194
69.97223845024,215
69.99248693542,195
70.0127354206,190
70.03298390578,202
70.05323239096,179
70.07348087614,200
70.09372936132,189
70.1139778465,210
70.13422633168,196
70.15447481686,181
70.17472330204,210
70.19497178722,203
70.2152202724,167
70.23546875758,184
70.25571724276,182
70.27596572794,175
70.29621421312,176
70.3164626983,195
70.33671118348,191
70.35695966866,193
70.37720815384,182
70.39745663902,184
70.4177051242,192
70.43795360938,194
70.45820209456,188
70.47845057974,227
70.49869906492,168
70.5189475501,160
70.53919603528,192
70.55944452046,211
70.57969300564,208
70.59994149082,207
70.620189976,214
70.64043846118,195
70.66068694636,232
70.68093543154,180
70.70118391672,187
70.7214324019,187
70.74168088708,193
70.76192937226,163
70.78217785744,207
70.80242634262,194
70.8226748278,209
70.84292331298,200
70.86317179816,197
70.88342028334,198
70.90366876852,182
70.9239172537,179
70.94416573888,193
70.96441422406,156
70.98466270924,169
71.00491119442,185
71.0251596796,193
71.04540816478,215
71.06565664996,179
71.08590513514,184
71.10615362032,188
71.1264021055,185
71.14665059068,175
71.16689907586,184
71.18714756104,173
71.20739604622,188
71.2276445314,186
71.24789301658,224
71.26814150176,218
71.28838998694,182
71.30863847212,193
71.3288869573,179
71.34913544248,157
71.36938392766,182
71.38963241284,214
71.40988089802,192
71.4301293832,206
71.45037786838,183
71.47062635356,186
71.49087483874,193
71.51112332392,199
71.5313718091,213
71.55162029428,207
71.57186877946,177
71.59211726464,189
71.61236574982,189
71.632614235,185
71.65286272018,171
71.67311120536,188
71.69335969054,157
71.71360817572,195
71.7338566609,200
71.75410514608,197
71.77435363126,191
71.79460211644,183
71.81485060162,177
71.8350990868,171
71.85534757198,196
71.87559605716,183
71.89584454234,184
71.91609302752,214
71.9363415127,166
71.95658999788,181
71.97683848306,197
71.99708696824,200
72.01733545342,177
72.0375839386,195
72.05783242378,170
72.07808090896,196
72.09832939414,173
72.11857787932,174
72.1388263645,180
72.15907484968,200
72.17932333486,189
72.19957182004,180
72.21982030522,187
72.2400687904,198
72.26031727558,161
72.28056576076,198
72.30081424594,192
72.32106273112,167
72.3413112163,180
72.36155970148,168
72.38180818666,190
72.40205667184,194
72.42230515702,187
72.4425536422,183
72.46280212738,197
72.48305061256,191
72.50329909774,182
72.52354758292,198
72.5437960681,173
72.56404455328,174
72.58429303846,196
72.60454152364,167
72.62479000882,188
72.645038494,165
72.66528697918,180
72.68553546436,201
72.70578394954,197
72.72603243472,179
72.7462809199,203
72.76652940508,180
72.78677789026,179
72.80702637544,199
72.82727486062,202
72.8475233458,173
72.86777183098,175
72.88802031616,170
72.90826880134,187
72.92851728652,154
72.9487657717,175
72.96901425688,189
72.98926274206,186
73.00951122724,195
73.02975971242,185
73.0500081976,190
73.07025668278,195
73.09050516796,197
73.11075365314,160
73.13100213832,171
73.1512506235,181
73.17149910868,175
73.19174759386,185
73.21199607904,184
73.23224456422,195
73.2524930494,186
73.27274153458,181
73.29299001976,215
73.31323850494,191
73.33348699012,168
73.3537354753,158
73.37398396048,195
73.39423244566,192
73.41448093084,192
73.43472941602,189
73.4549779012,177
73.47522638638,173
73.49547487156,183
73.51572335674,183
73.53597184192,187
73.5562203271,187
73.57646881228,189
73.59671729746,193
73.61696578264,180
73.63721426782,184
73.657462753,190
73.67771123818,184
73.69795972336,191
73.71820820854,202
73.73845669372,198
73.7587051789,206
73.77895366408,199
73.79920214926,184
73.81945063444,181
73.83969911962,182
73.8599476048,188
73.88019608998,190
73.90044457516,194
73.92069306034,178
73.94094154552,178
73.9611900307,186
73.98143851588,178
74.00168700106,200
74.02193548624,185
74.04218397142,169
74.0624324566,160
74.08268094178,198
74.10292942696,217
74.12317791214,179
74.14342639732,173
74.1636748825,176
74.18392336768,204
74.20417185286,184
74.22442033804,177
74.24466882322,199
74.2649173084,204
74.28516579358,180
74.30541427876,174
74.32566276394,191
74.34591124912,175
74.3661597343,180
74.38640821948,181
74.40665670466,203
74.42690518984,179
74.44715367502,199
74.4674021602,187
74.48765064538,195
74.50789913056,190
74.52814761574,186
74.54839610092,189
74.5686445861,186
74.58889307128,181
74.60914155646,195
74.62939004164,196
74.64963852682,194
74.669887012,185
74.69013549718,189
74.71038398236,180
74.73063246754,179
74.75088095272,176
74.7711294379,200
74.79137792308,185
74.81162640826,187
74.83187489344,170
74.85212337862,174
74.8723718638,201
74.89262034898,186
74.91286883416,197
74.93311731934,194
74.95336580452,207
74.9736142897,178
74.99386277488,183
75.01411126006,183
75.03435974524,191
75.05460823042,210
75.0748567156,177
75.09510520078,191
75.11535368596,187
75.13560217114,224
75.15585065632,193
75.1760991415,208
75.19634762668,196
75.21659611186,211
75.23684459704,185
75.25709308222,208
75.2773415674,206
75.29759005258,211
75.31783853776,222
75.33808702294,216
75.35833550812,173
75.3785839933,214
75.39883247848,213
75.41908096366,215
75.43932944884,193
75.45957793402,194
75.4798264192,182
75.50007490438,199
75.52032338956,205
75.54057187474,170
75.56082035992,201
75.5810688451,201
75.60131733028,227
75.62156581546,207
75.64181430064,193
75.66206278582,232
75.682311271,218
75.70255975618,218
75.72280824136,202
75.74305672654,222
75.76330521172,236
75.7835536969,240
75.80380218208,245
75.82405066726,240
75.84429915244,245
75.86454763762,270
75.8847961228,232
75.90504460798,259
75.92529309316,256
75.94554157834,219
75.96579006352,224
75.9860385487,242
76.00628703388,247
76.02653551906,273
76.04678400424,282
76.06703248942,263
76.0872809746,283
76.10752945978,292
76.12777794496,296
76.14802643014,273
76.16827491532,307
76.1885234005,340
76.20877188568,289
76.22902037086,299
76.24926885604,311
76.26951734122,356
76.2897658264,324
76.31001431158,360
76.33026279676,377
76.35051128194,391
76.37075976712,403
76.3910082523,438
76.41125673748,450
76.43150522266,436
76.45175370784,493
76.47200219302,482
76.4922506782,482
76.51249916338,464
76.53274764856,443
76.55299613374,455
76.57324461892,438
76.5934931041,457
76.61374158928,483
76.63399007446,434
76.65423855964,444
76.67448704482,467
76.69473553,475
76.71498401518,431
76.73523250036,436
76.75548098554,458
76.77572947072,401
76.7959779559,415
76.81622644108,379
76.83647492626,388
76.85672341144,370
76.87697189662,320
76.8972203818,324
76.91746886698,319
76.93771735216,292
76.95796583734,334
76.97821432252,282
76.9984628077,269
77.01871129288,253
77.03895977806,270
77.05920826324,260
77.07945674842,272
77.0997052336,257
77.11995371878,247
77.14020220396,241
77.16045068914,246
77.18069917432,244
77.2009476595,229
77.22119614468,253
77.24144462986,223
77.26169311504,260
77.28194160022,233
77.3021900854,224
77.32243857058,220
77.34268705576,225
77.36293554094,228
77.38318402612,214
77.4034325113,221
77.42368099648,220
77.44392948166,203
77.46417796684,215
77.48442645202,222
77.5046749372,205
77.52492342238,203
77.54517190756,257
77.56542039274,208
77.58566887792,211
77.6059173631,198
77.62616584828,208
77.64641433346,209
77.66666281864,199
77.68691130382,222
77.707159789,194
77.72740827418,205
77.74765675936,196
77.76790524454,235
77.78815372972,227
77.8084022149,212
77.82865070008,223
77.84889918526,207
77.86914767044,176
77.88939615562,207
77.9096446408,191
77.92989312598,201
77.95014161116,206
77.97039009634,218
77.99063858152,209
78.0108870667,194
78.03113555188,200
78.05138403706,216
78.07163252224,213
78.09188100742,193
78.1121294926,235
78.13237797778,202
78.15262646296,204
78.17287494814,202
78.19312343332,218
78.2133719185,227
78.23362040368,246
78.25386888886,232
78.27411737404,237
78.29436585922,228
78.3146143444,210
78.33486282958,224
78.35511131476,242
78.37535979994,260
78.39560828512,219
78.4158567703,234
78.43610525548,266
78.45635374066,250
78.47660222584,280
78.49685071102,243
78.5170991962,273
78.53734768138,246
78.55759616656,260
78.57784465174,274
78.59809313692,286
78.6183416221,308
78.63859010728,310
78.65883859246,306
78.67908707764,318
78.69933556282,309
78.719584048,331
78.73983253318,346
78.76008101836,321
78.78032950354,347
78.80057798872,345
78.8208264739,371
78.84107495908,391
78.86132344426,383
78.88157192944,350
78.90182041462,363
78.9220688998,390
78.94231738498,374
78.96256587016,395
78.98281435534,408
79.00306284052,339
79.0233113257,358
79.04355981088,384
79.06380829606,351
79.08405678124,353
79.10430526642,358
79.1245537516,341
79.14480223678,344
79.16505072196,301
79.18529920714,312
79.20554769232,303
79.2257961775,301
79.24604466268,289
79.26629314786,324
79.28654163304,284
79.30679011822,278
79.3270386034,279
79.34728708858,263
79.36753557376,267
79.38778405894,245
79.40803254412,263
79.4282810293,242
79.44852951448,231
79.46877799966,254
79.48902648484,234
79.50927497002,223
79.5295234552,233
79.54977194038,224
79.57002042556,227
79.59026891074,209
79.61051739592,199
79.6307658811,216
79.65101436628,233
79.67126285146,215
79.69151133664,211
79.71175982182,247
79.732008307,236
79.75225679218,206
79.77250527736,214
79.79275376254,202
79.81300224772,208
79.8332507329,199
79.85349921808,198
79.87374770326,194
79.89399618844,193
79.91424467362,183
79.9344931588,212
79.95474164398,217
79.97499012916,210
79.99523861434,221
80.01548709952,202
80.0357355847,195
80.05598406988,197
80.07623255506,206
80.09648104024,183
80.11672952542,199
80.1369780106,192
80.15722649578,178
80.17747498096,191
80.19772346614,173
80.21797195132,186
80.2382204365,197
80.25846892168,217
80.27871740686,217
80.29896589204,180
80.31921437722,190
80.3394628624,212
80.35971134758,202
80.37995983276,173
80.40020831794,189
80.42045680312,185
80.4407052883,211
80.46095377348,177
80.48120225866,205
80.50145074384,188
80.52169922902,197
80.5419477142,201
80.56219619938,174
80.58244468456,184
80.60269316974,177
80.62294165492,173
80.6431901401,201
80.66343862528,188
80.68368711046,195
80.70393559564,175
80.72418408082,198
80.744432566,187
80.76468105118,186
80.78492953636,184
80.80517802154,173
80.82542650672,204
80.8456749919,198
80.86592347708,182
80.88617196226,199
80.90642044744,187
80.92666893262,173
80.9469174178,203
80.96716590298,194
80.98741438816,186
81.00766287334,184
81.02791135852,196
81.0481598437,201
81.06840832888,195
81.08865681406,198
81.10890529924,208
81.12915378442,194
81.1494022696,189
81.16965075478,201
81.18989923996,183
81.21014772514,167
81.23039621032,206
81.2506446955,216
81.27089318068,200
81.29114166586,219
81.31139015104,232
81.33163863622,192
81.3518871214,169
81.37213560658,189
81.39238409176,191
81.41263257694,207
81.43288106212,209
81.4531295473,188
81.47337803248,195
81.49362651766,222
81.51387500284,198
81.53412348802,193
81.5543719732,195
81.57462045838,195
81.59486894356,178
81.61511742874,212
81.63536591392,180
81.6556143991,164
81.67586288428,199
81.69611136946,197
81.71635985464,172
81.73660833982,182
